temp,mean,conf_lower,conf_upper
0,2.541066490513005,2.408628877360544,2.6671760403777838
0.1,2.5414972081994,2.409715927226209,2.667059293788218
0.2,2.5419053487188865,2.410554959925156,2.666918030542144
0.3,2.542290912071464,2.411339045429078,2.6668135218280344
0.4,2.542653898257134,2.412011232972681,2.6668197475928856
0.5,2.542994307275895,2.412786174967856,2.666901770475758
0.6,2.5433121391277482,2.413575484027015,2.666821949636737
0.7,2.5436073938126933,2.4144014736965014,2.6668635146332162
0.8,2.5438800713307295,2.4151053029612117,2.6667333110865137
0.9,2.5441301716818576,2.4157175181540778,2.6666841947897844
1,2.5443576948660773,2.4163300394792104,2.6662838848932493
1.1,2.544562640883389,2.416901987141392,2.6661710256250766
1.2,2.5447450097337923,2.4174492224733135,2.6660280979574793
1.3,2.544904801417287,2.4180555123624825,2.6657455996200348
1.4,2.5450420159338734,2.418715502965213,2.6654078703946085
1.5,2.5451566532835517,2.419258024008834,2.6651632645728576
1.6,2.5452487134663215,2.419713506539246,2.6649708541717407
1.7,2.545318196482183,2.419994395105582,2.6649313135981014
1.8,2.5453651023311363,2.420347979995918,2.6648193108064637
1.9,2.5453894310131813,2.4208176807355484,2.66440212313384
2,2.545391182528318,2.4209933354984425,2.6642687898763784
2.1,2.5453703568765462,2.4211879379820482,2.663976787946697
2.2,2.5453269540578662,2.4214660429135217,2.6636866182962997
2.3,2.545260974072278,2.4215756193007194,2.6634767967129687
2.4,2.5451724169197814,2.4218408227038686,2.663320553199623
2.5,2.5450612826003765,2.421928083201266,2.663069690928987
2.6,2.544927571114063,2.4220889619001955,2.6627102887474488
2.7,2.5447712824608413,2.422175052242011,2.662271615145275
2.8,2.5445924166407115,2.422208828162739,2.6619343544047283
2.9,2.544390973653673,2.4223045225645476,2.6615625677229797
3,2.544166953499727,2.4222031761634315,2.6611493738486924
3.1,2.543920356178872,2.4221248804116806,2.660707989075667
3.2,2.543651181691109,2.4219372401148793,2.660249504192205
3.3,2.5433594300364373,2.4217106027584694,2.659828776997397
3.4,2.5430451012148576,2.421574600876789,2.6594885359059672
3.5,2.5427081952263695,2.4213597185896574,2.6590199964158074
3.6,2.5423487120709733,2.421080148853473,2.6586245781750666
3.7,2.5419666517486683,2.420788885214682,2.6581225618656257
3.8,2.5415620142594557,2.42047629873431,2.6577100291166342
3.9,2.541134799603334,2.4201384125285035,2.6572092568970986
4,2.5406850077803043,2.419779529686977,2.656668744755071
4.1,2.540212638790366,2.4193877320243553,2.656129863758088
4.2,2.53971769263352,2.4189738477822296,2.6556072381484266
4.3,2.5392001693097654,2.41853847075788,2.6549968272135374
4.4,2.5386600688191026,2.4180366423137003,2.6544121644057133
4.5,2.538097391161531,2.4174057609220374,2.653878761475676
4.6,2.5375121363370514,2.416753305915102,2.6533198470819963
4.7,2.5369043043456636,2.4160099148965104,2.652723981963331
4.8,2.5362738951873673,2.4152142138488335,2.652123450171408
4.9,2.535620908862163,2.414613101610407,2.651523580291403
5,2.5349453453700503,2.4138227822495253,2.6507842934985018
5.1,2.534247204711029,2.413107815193957,2.650056006973038
5.2,2.5335264868850995,2.4123057946638857,2.6494179302160585
5.3,2.5327831918922614,2.4114607271478894,2.6486482667045306
5.4,2.5320173197325153,2.410742588569689,2.6477967100049735
5.5,2.5312288704058608,2.4096988912413093,2.647061342323756
5.6,2.530417843912298,2.4088095832823946,2.646366010207964
5.7,2.529584240251827,2.4078582980783665,2.645613095293128
5.8,2.5287280594244477,2.4069556092917086,2.644779790146735
5.9,2.52784930143016,2.4059883274151193,2.6440448891646815
6,2.5269479662689642,2.4050614046902914,2.643187176554295
6.1,2.52602405394086,2.4039636522383225,2.6423530629375196
6.2,2.5250775644458474,2.4029232719322158,2.6413753966572733
6.3,2.524108497783926,2.4018639342788717,2.6405155712316706
6.4,2.5231168539550968,2.400701640934023,2.6396807192530627
6.5,2.522102632959359,2.3997178616777974,2.638752252020643
6.6,2.5210658347967136,2.398608765796611,2.637919592707852
6.7,2.520006459467159,2.3974846885254752,2.636920065847428
6.8,2.5189245069706967,2.396349180370512,2.635844632867114
6.9,2.517819977307326,2.3950501361257377,2.6347617703206967
7,2.516692870477047,2.3939157260016675,2.6336986237149906
7.1,2.515543186479859,2.3926644716782834,2.6326091830347518
7.2,2.5143709253157636,2.3915054020299866,2.631390350583274
7.3,2.5131760869847595,2.390198697530194,2.630340680539784
7.4,2.511958671486847,2.3888639502758418,2.6291870285159997
7.5,2.510718678822026,2.3875459316377947,2.6280334030743697
7.6,2.509456108990297,2.386290659492476,2.626900156506669
7.7,2.5081709619916595,2.3848353624112706,2.6257310419021263
7.8,2.5068632378261135,2.3834057428238227,2.6244637980929215
7.9,2.50553293649366,2.3819845777489057,2.6231753270221176
8,2.5041800579942977,2.3806213615594687,2.6218614863805025
8.1,2.502804602328027,2.379239167927235,2.6206271691140213
8.2,2.501406569494848,2.377837683699238,2.6193305745341444
8.3,2.4999859594947607,2.376416908875478,2.6180677682662843
8.4,2.498542772327765,2.374976843455954,2.616768261791407
8.5,2.4970770079938616,2.3734357201124654,2.6154341558303034
8.6,2.495588666493049,2.371854442899762,2.6140718699735226
8.7,2.4940777478253287,2.370254175366921,2.612580989246618
8.8,2.4925442519906995,2.3686989449834757,2.6109982987094646
8.9,2.4909881789891624,2.3670145099786084,2.6093860937360693
9,2.489409528820717,2.3653198260344652,2.6077937079717817
9.1,2.487808301485363,2.3637250709323343,2.606234854655555
9.2,2.486184496983101,2.36211727859037,2.6046537091260875
9.3,2.4845381153139305,2.36049579879025,2.6030148455656223
9.4,2.482869156477852,2.3588575606155273,2.601382144568013
9.5,2.481177620474865,2.3571741012960628,2.599676332635596
9.6,2.4794635073049696,2.3554447297515546,2.597942314982874
9.7,2.4777268169681657,2.353668599216431,2.5961824275040533
9.8,2.4759675494644537,2.351886276731646,2.594507963765947
9.9,2.4741857047938334,2.3500913241845174,2.5926750361390907
10,2.4723812829563045,2.348252371502135,2.59093620227849
10.1,2.4705542839518677,2.346369922555697,2.589124662078719
10.2,2.468704707780523,2.344494940331196,2.587266244265063
10.3,2.4668325544422687,2.342600884926914,2.585382906385624
10.4,2.464937823937107,2.3406924952653325,2.58346981507559
10.5,2.4630205162650367,2.3387662493034203,2.5815297947140734
10.6,2.461080631426058,2.336821096137114,2.5796189904294513
10.7,2.4591181694201714,2.3348743104363336,2.5776386124065236
10.8,2.4571331302473762,2.3329408062360653,2.575686767070521
10.9,2.4551255139076726,2.330989890091786,2.573756563327416
11,2.453095320401061,2.329021562003498,2.5717647158074937
11.1,2.4539567557738504,2.3309563637675774,2.5714212667282066
11.2,2.454773036812823,2.332782430976581,2.5710280754950174
11.3,2.455544163517979,2.334610790061694,2.570647909324993
11.4,2.456270135889318,2.336540391359038,2.5702421278458765
11.5,2.4569509539268406,2.3384452774406084,2.56971934339275
11.6,2.4575866176305468,2.3403023414980693,2.569151933907838
11.7,2.4581771270004364,2.3420975105532,2.568656638652871
11.8,2.4587224820365092,2.3437248575261416,2.568194626117755
11.9,2.4592226827387655,2.3453061691710264,2.5677873970037464
12,2.4596777291072054,2.3468824323997164,2.5672176238615863
12.1,2.4600876211418283,2.348403937478989,2.5665510399087443
12.2,2.4604523588426344,2.349881840255586,2.565960624215731
12.3,2.4607719422096244,2.351315159311338,2.565329983193661
12.4,2.461046371242797,2.3527049853846664,2.564695964597991
12.5,2.4612756459421536,2.354044630032578,2.564014234631684
12.6,2.4614597663076934,2.3553341537872625,2.563286665193739
12.7,2.461598732339416,2.3566199521311386,2.5624550700907722
12.8,2.461692544037323,2.3578553960230018,2.5615739098800883
12.9,2.461741201401413,2.358935545575867,2.5606370034743673
13,2.4617447044316862,2.3600925330165925,2.5597104524298997
13.1,2.4617030531281427,2.361281146718515,2.5587354187645097
13.2,2.461616247490783,2.3623866227909347,2.5577078802155304
13.3,2.461484287519606,2.363314911235747,2.5566537524532063
13.4,2.461307173214613,2.364199949891741,2.555557630179504
13.5,2.461084904575803,2.364924579548984,2.5544005668591385
13.6,2.4608174816031765,2.3656280437464035,2.553174102797506
13.7,2.4605049042967337,2.3663227822023423,2.551852826017499
13.8,2.460147172656473,2.366980404332182,2.5505155964274353
13.9,2.459744286682397,2.3675084736954943,2.5492076076479835
14,2.459296246374504,2.3679857564269877,2.547811011705117
14.1,2.4588030517327946,2.368495776913596,2.546317481539859
14.2,2.458264702757268,2.368990658126058,2.544751333135003
14.3,2.457681199447925,2.3694493093172317,2.5432602390703507
14.4,2.4570525418047655,2.3699316743862457,2.541730944423538
14.5,2.4563787298277893,2.3704340244848288,2.5400429513331857
14.6,2.4556597635169966,2.370680515102536,2.538393826923632
14.7,2.454895642872387,2.3708635740908894,2.5367310095815667
14.8,2.454086367893961,2.371018922883394,2.535065954982292
14.9,2.453231938581718,2.3711108114908486,2.5332224050330066
15,2.452332354935659,2.371050437188286,2.5313049667244725
15.1,2.451387616955783,2.3710949303113433,2.5293390779772253
15.2,2.45039772464209,2.3710064954574825,2.527472780627817
15.3,2.4493626779945807,2.3708802292905817,2.5255644669467534
15.4,2.448282477013255,2.3706916827845435,2.523551336097703
15.5,2.4471571216981127,2.3705824905298885,2.521475335378466
15.6,2.445986612049153,2.370220925626671,2.5193676291075207
15.7,2.4447709480663775,2.3699682763089305,2.5171813581201987
15.8,2.443510129749785,2.369597132924593,2.5149497159585548
15.9,2.442204157099376,2.3691881466926628,2.5128665753991113
16,2.44085303011515,2.368541712890963,2.510698398631505
16.1,2.4394567487971077,2.3678591262821422,2.5083996442985894
16.2,2.4380153131452484,2.367244492100701,2.50607153757361
16.3,2.436528723159573,2.366553103885308,2.5038547704600633
16.4,2.434996978840081,2.3658492157048556,2.501730777922881
16.5,2.4334200801867722,2.364866827049375,2.4993652073867074
16.6,2.4317980271996467,2.3640151989444202,2.4970887150622003
16.7,2.4301308198787046,2.362961698023379,2.494745398895663
16.8,2.4284184582239456,2.3619345248480763,2.49224536352218
16.9,2.4266609422353707,2.360820211470889,2.489661654170149
17,2.4248582719129788,2.359785356698596,2.4871089014284213
17.1,2.42301044725677,2.3586338801745326,2.4846076697945687
17.2,2.4211174682667442,2.357073473757743,2.482077855477076
17.3,2.4191793349429025,2.355569723131606,2.479523322402144
17.4,2.4171960472852443,2.354041387959497,2.476984510912776
17.5,2.415167605293769,2.3526392578939994,2.4744177365523257
17.6,2.4130940089684776,2.351272755193996,2.4718866376317346
17.7,2.410975258309369,2.349702008970199,2.4692020187093298
17.8,2.4088113533164437,2.3481961647372973,2.4665531358265227
17.9,2.4066022939897023,2.346774619546772,2.4636975366096303
18,2.4043480803291435,2.345163764935151,2.460856603916244
18.1,2.4020487123347687,2.3435501786977913,2.457972603563816
18.2,2.3997041900065774,2.3418486296334606,2.4552607531432975
18.3,2.3973145133445684,2.339800782690163,2.452378170169993
18.4,2.394879682348744,2.3377155791010304,2.4495037360493477
18.5,2.392399697019102,2.335651113747815,2.4465428523765125
18.6,2.389874557355644,2.333465113137983,2.443671988474552
18.7,2.3873042633583696,2.331185878115671,2.440959359269663
18.8,2.3846888150272783,2.3289753840431766,2.4379952178060647
18.9,2.3820282123623704,2.3268470886847883,2.4347566877158027
19,2.3793224553636456,2.324560525460551,2.4316947383081455
19.1,2.376571544031104,2.3221627978502974,2.4285761589661865
19.2,2.3737754783647462,2.3195574589150914,2.4254874420764088
19.3,2.3709342583645716,2.3169781348954936,2.4223436185181404
19.4,2.3680478840305805,2.3142630219207083,2.4191877268761006
19.5,2.3651163553627725,2.3115340698075193,2.4158181366056057
19.6,2.362139672361148,2.308926407480544,2.4127664630056658
19.7,2.3591178350257067,2.305971327758132,2.4097817540510627
19.8,2.3560508433564493,2.3031504645359817,2.406593656518904
19.9,2.352938697353375,2.3003219800094725,2.4032771487162257
20,2.3497813970164843,2.297429667523622,2.399914057485577
20.1,2.3465789423457766,2.294512842565566,2.396492150030906
20.2,2.3433313333412524,2.291580493269951,2.3930549481196772
20.3,2.340038570002912,2.2885834695802116,2.389687206409798
20.4,2.3367006523307543,2.2855418046560745,2.3862381532668127
20.5,2.33331758032478,2.2823050757514154,2.38275005902986
20.6,2.329889353984989,2.2789742393892416,2.3792221372300197
20.7,2.3264159733113816,2.275659305843864,2.3757806294746673
20.8,2.322897438303958,2.272320115955628,2.372141320867982
20.9,2.319333748962717,2.2689306176723707,2.3684399340335234
21,2.31572490528766,2.265605914929614,2.3648649362058602
21.1,2.3120709072787857,2.2619515380496855,2.3613384015462877
21.2,2.308371754936095,2.2581928458444764,2.357716466687993
21.3,2.304627448259588,2.254296244444441,2.3538046851183805
21.4,2.300837987249264,2.2504182291465256,2.3499069318779844
21.5,2.2970033719051237,2.2465922157262987,2.3461490279999517
21.6,2.293123602227167,2.2428231220605257,2.342315131755277
21.7,2.289198678215393,2.238704004732412,2.3384990762109252
21.8,2.2852285998698028,2.2346682152761006,2.3345599322357176
21.9,2.2812133671903956,2.2306178632352855,2.330493156417202
22,2.2771529801771724,2.2264691245974695,2.3265029692984323
22.1,2.273047438830132,2.222379434333985,2.322347675302727
22.2,2.268896743149275,2.2179475303331935,2.3181485311062158
22.3,2.2647008931346018,2.2134751168962037,2.313966807897371
22.4,2.2604598887861114,2.208977496087281,2.3099849701129953
22.5,2.2561737301038045,2.204518455651618,2.305978608013819
22.6,2.2518424170876807,2.2000318058309962,2.3017719099083154
22.7,2.247465949737741,2.195574916232293,2.2976676450131617
22.8,2.2430443280539847,2.1909755745053108,2.293395779480456
22.9,2.2385775520364115,2.186301168283291,2.2894886529252476
23,2.234065621685021,2.1816253609235248,2.2852137973754383
23.1,2.229508536999815,2.176883066022561,2.2812078166745464
23.2,2.2249062979807914,2.1720901449130894,2.27715564758636
23.3,2.220258904627952,2.1672568742617306,2.2727727129761326
23.4,2.2155663569412956,2.1624117218432692,2.2682081442661377
23.5,2.2108286549208223,2.157421484350812,2.2637173115693527
23.6,2.2060457985665325,2.1523165928302603,2.2592602215036184
23.7,2.201217787878426,2.1470094918307465,2.25493754847578
23.8,2.196344622856503,2.141747471640347,2.2505239604403604
23.9,2.1914263035007635,2.136606688902254,2.245786734734372
24,2.186462829811207,2.1312254588031374,2.241314910653963
24.1,2.181454201787834,2.1258380121571596,2.2366659651117513
24.2,2.1764004194306446,2.1205075425150213,2.232000399059242
24.3,2.171301482739639,2.114827211950608,2.2273967282842158
24.4,2.1661573917148162,2.109248694881966,2.222837803548847
24.5,2.1609681463561765,2.1034763318149476,2.218279691606652
24.6,2.1557337466637203,2.0978551166619477,2.2136127356151944
24.7,2.1504541926374476,2.0919091074326466,2.208881670928146
24.8,2.1451294842773585,2.0859388382283175,2.204234978607239
24.9,2.1397596215834525,2.080084367401887,2.1995367198496445
25,2.13434460455573,2.074029833202081,2.194780013404026
25.1,2.1288844331941905,2.0679706559875677,2.189978075564185
25.2,2.1233791074988346,2.061774440563932,2.1851419971184223
25.3,2.1178286274696627,2.055511534416617,2.180326635865829
25.4,2.1122329931066735,2.0493115700799587,2.1755747202211273
25.5,2.1065922044098677,2.0430050316737773,2.1706774656822114
25.6,2.100906261379245,2.036522597626723,2.165823205882244
25.7,2.095175164014806,2.0299470123165277,2.160764754234817
25.8,2.0893989123165513,2.023323527264553,2.1557781239309817
25.9,2.0835775062844784,2.016648492024946,2.150685591939744
26,2.0777109459185894,2.0099981252193544,2.1455356578091567
26.1,2.0717992312188835,2.0033743166518967,2.1403696926067552
26.2,2.0658423621853617,1.996710659009624,2.135202320574818
26.3,2.0598403388180233,1.9900204496220724,2.1299295010007953
26.4,2.053793161116868,1.9833070144714071,2.1246765689112
26.5,2.0477008290818954,1.9764383997355846,2.119642456515243
26.6,2.041563342713107,1.969522084746814,2.114566898688777
26.7,2.0353807020105017,1.9624449302939655,2.109438456170459
26.8,2.0291529069740797,1.955203009666951,2.104289413012016
26.9,2.022879957603841,1.9481280239807028,2.099125097798624
27,2.016561853899786,1.9408361773035152,2.093797899081924
27.1,2.0101985958619144,1.9335920290631572,2.088320355414712
27.2,2.0037901834902256,1.9262331734798122,2.082825688771444
27.3,1.9973366167847204,1.9188036170420593,2.077178103679784
27.4,1.9908378957453987,1.9114733356736169,2.071428617002311
27.5,1.9842940203722603,1.9037898416865118,2.065777292348777
27.6,1.9777049906653053,1.896233083200387,2.060147976266266
27.7,1.971070806624534,1.8885866936006657,2.0544430503903097
27.8,1.9643914682499455,1.8809612465498309,2.048639707288395
27.9,1.9576669755415408,1.8732435525405797,2.042916741356418
28,1.9508973284993192,1.8655209150520617,2.0370529368017056
28.1,1.944082527123281,1.8576294604803563,2.031194704246203
28.2,1.9372225714134264,1.8497502606922542,2.025174892032827
28.3,1.9303174613697545,1.8418240096682446,2.019250898482289
28.4,1.9233671969922668,1.8337671073914752,2.0133746468995097
28.5,1.916371778280962,1.8258610236420736,2.0075379130451694
28.6,1.9093312052358407,1.8178019277064568,2.001840733187277
28.7,1.9022454778569027,1.809700154819636,1.9959604297604387
28.8,1.8951145961441482,1.8015592554877342,1.9899879641923972
28.9,1.8879385600975769,1.7932271245047655,1.9839918130369396
29,1.880717369717189,1.7850319320812462,1.9779991218008797
29.1,1.8734510250029845,1.776692199897158,1.9719638804689743
29.2,1.8661395259549636,1.768416956826903,1.9657829913445166
29.3,1.858782872573126,1.7599663833438977,1.959755008606734
29.4,1.8513810648574716,1.7514600715450777,1.953606787867344
29.5,1.8439341028080003,1.7429427928013081,1.9474423376887948
29.6,1.8364419864247126,1.7344605649890124,1.9412820103628623
29.7,1.8289047157076084,1.7257506166795746,1.9348984824875117
29.8,1.8213222906566875,1.7170386503026414,1.9283879015439385
29.9,1.8136947112719501,1.708307442876983,1.9218288036092952
30,1.8060219775533959,1.69960648877555,1.9152266765441042
30.1,1.7983040895010252,1.6908588616700655,1.908686413294311
30.2,1.7905410471148377,1.6820642484075634,1.9020662131713857
30.3,1.7827328503948339,1.6732226489880435,1.895462141800741
30.4,1.774879499341013,1.6643340634115051,1.8887919812093206
30.5,1.7669809939533758,1.655316724349747,1.8820290609607504
30.6,1.7590373342319217,1.6462315358575201,1.8752199633476256
30.7,1.751048520176651,1.6370996614839004,1.8682642733955
30.8,1.743014551787564,1.6279530687508819,1.8611987761642488
30.9,1.73493542906466,1.6185952620239852,1.8540857670278772
31,1.7268111520079394,1.6091989392675115,1.846974579631736
31.1,1.7186417206174023,1.599874278262749,1.839878927214779
31.2,1.7104271348930484,1.5905083129278514,1.8327429851157033
31.3,1.7021673948348783,1.5811003930444976,1.825531327516753
31.4,1.6938625004428915,1.5716474476962392,1.8183078350117805
31.5,1.6855124517170876,1.5621221668971315,1.8109932341031232
31.6,1.677117248657467,1.5525256168380936,1.8036324300052837
31.7,1.6686768912640304,1.5428540782146856,1.7962277586124675
31.8,1.660191379536777,1.5331481180678623,1.788890513491489
31.9,1.6516607134757069,1.5234012982849399,1.7813768070128824
32,1.6430848930808197,1.5135822487930084,1.773939196831655
32.1,1.6344639183521164,1.5036914734632671,1.7664108828423783
32.2,1.6257977892895965,1.4937799352817076,1.7588176937703406
32.3,1.6170865058932598,1.4838210943466135,1.7511815871636423
32.4,1.6083300681631065,1.4738196895804638,1.7434977296574716
32.5,1.5995284760991364,1.4637721989402286,1.7357689456309402
32.6,1.5906817297013498,1.4536775715218446,1.7280513802124262
32.7,1.5817898289697467,1.4435530819952327,1.7202462435867294
32.8,1.572852773904327,1.4334136443953773,1.7124696179416983
32.9,1.5638705645050905,1.4232285652777565,1.7047603904332396
33,1.5548432007720372,1.4129978446423714,1.6969719777652357
