temp,mean,conf_lower,conf_upper
0,0.8816923267136684,0.8126703494281402,0.9494610473194687
0.1,0.8828888981339096,0.8142051076407293,0.9503156460647976
0.2,0.8840740960255908,0.8156926741730698,0.9511642356026073
0.3,0.8852479203887123,0.8171217235383778,0.9520076240606918
0.4,0.8864103712232737,0.8185855639314072,0.9528421644709836
0.5,0.8875614485292754,0.8200396885671435,0.9536654530868974
0.6,0.8887011523067171,0.8214808841271666,0.9544795581370806
0.7,0.8898294825555989,0.8229088092876279,0.9552810600368217
0.8,0.8909464392759209,0.8243234640485272,0.956073488328931
0.9,0.8920520224676829,0.8257271702385063,0.9568571349317982
1,0.8931462321308851,0.8271204137472763,0.9576452063640994
1.1,0.8942290682655273,0.8285003296772792,0.9584307764277464
1.2,0.8953005308716095,0.8298669180285148,0.9592406557745644
1.3,0.8963606199491322,0.8312201788009832,0.9600254418412849
1.4,0.8974093354980947,0.8325819914048923,0.9607977952418404
1.5,0.8984466775184973,0.8339565318764359,0.9615179966884092
1.6,0.89947264601034,0.8353003749596406,0.9622054397835408
1.7,0.9004872409736229,0.8365661280025624,0.9628809394151528
1.8,0.901490462408346,0.8378187618523929,0.9635478708437838
1.9,0.902482310314509,0.8390686802286683,0.9642345405692799
2,0.9034627846921122,0.8403562403725028,0.9648778070489876
2.1,0.9044318855411555,0.841583680332956,0.9655046175889459
2.2,0.9053896128616388,0.8428404457084455,0.9661380022264471
2.3,0.9063359666535624,0.8441041116477471,0.9668920668343661
2.4,0.9072709469169259,0.8453536684390677,0.9675970417929722
2.5,0.9081945536517296,0.8465880095054715,0.9682479182172791
2.6,0.9091067868579734,0.847694215247653,0.9688899220070958
2.7,0.9100076465356572,0.8487879081956857,0.9695191444365945
2.8,0.9108971326847813,0.8498833549426166,0.9701362832839469
2.9,0.9117752453053455,0.8510478376987604,0.9707468876054994
3,0.9126419843973498,0.8522328463963784,0.9714310831392575
3.1,0.9134973499607941,0.8534036825270291,0.9719349727583455
3.2,0.9143413419956784,0.8544359533472401,0.9725169602272592
3.3,0.9151739605020031,0.8554897931984567,0.9730901598515632
3.4,0.9159952054797676,0.8565515692365998,0.9736617755217937
3.5,0.9168050769289724,0.8576639041601845,0.9742595605568222
3.6,0.9176035748496173,0.8587629534697527,0.9749285036198121
3.7,0.9183906992417021,0.8597501716236189,0.9755588190772342
3.8,0.9191664501052274,0.8608133866768716,0.9761704727431726
3.9,0.9199308274401925,0.8617240095112841,0.9767589678844132
4,0.9206838312465978,0.8627365891631428,0.9772859892980874
4.1,0.9214254615244432,0.8637243300469484,0.9777527153768755
4.2,0.9221557182737286,0.8646576359400375,0.9783329431056377
4.3,0.9228746014944542,0.8655778869500251,0.9788944590832328
4.4,0.9235821111866199,0.8664929348187872,0.9793771242011517
4.5,0.9242782473502258,0.8673828653789836,0.979894281148335
4.6,0.9249630099852717,0.8682559809660395,0.9803369771599466
4.7,0.9256363990917575,0.8691214589265851,0.9808863587413916
4.8,0.9262984146696838,0.8699738949499876,0.9814526337337831
4.9,0.9269490567190499,0.8708132890362463,0.9819210470367172
5,0.9275883252398562,0.8716409682098752,0.9823432634013662
5.1,0.9282162202321027,0.8724712827201873,0.9828170744897351
5.2,0.9288327416957891,0.8731980600289708,0.983318985022164
5.3,0.929437889630916,0.8739141702784031,0.9838200800248594
5.4,0.9300316640374826,0.8746557439340689,0.9843009174251504
5.5,0.9306140649154895,0.8753764308157027,0.9848028818681942
5.6,0.9311850922649364,0.8761280871102816,0.985273776460595
5.7,0.9317447460858234,0.8768571438215784,0.9857142015494129
5.8,0.9322930263781507,0.8776167192710977,0.9861318039770645
5.9,0.9328299331419179,0.8783529564902481,0.9865953442091692
6,0.9333554663771252,0.8789276616452739,0.9870483409541955
6.1,0.9338696260837728,0.8795012153147919,0.9874423850879168
6.2,0.9343724122618603,0.8800634073743603,0.9878599250994746
6.3,0.9348638249113881,0.8806261002199065,0.988236269604937
6.4,0.9353438640323558,0.8811881701786277,0.9885935225933422
6.5,0.9358125296247637,0.8817003904869297,0.9890058842516093
6.6,0.9362698216886116,0.8822013820243764,0.9893053314167045
6.7,0.9367157402238998,0.882691144790968,0.9896676525428846
6.8,0.937150285230628,0.8832423317497391,0.9900930292512788
6.9,0.9375734567087962,0.8838356987179371,0.990422290892441
7,0.9379852546584048,0.884310233728443,0.9907166660790113
7.1,0.9403783974988871,0.887254589910662,0.9925748672425628
7.2,0.9427487932822496,0.8901926606418811,0.9943934208621108
7.3,0.9450964420084926,0.8931587578405613,0.9961940934800101
7.4,0.9474213436776155,0.8961176680706145,0.9980575569025709
7.5,0.9497234982896188,0.8990431197819468,0.9999037886748974
7.6,0.9520029058445021,0.9019197192379179,1.001667890040342
7.7,0.9542595663422657,0.9047579201175447,1.0033934287309416
7.8,0.9564934797829099,0.9075365225191072,1.005124316773513
7.9,0.9587046461664339,0.910357818867061,1.006876762639429
8,0.9608930654928379,0.9130916531350478,1.0086086041243536
8.1,0.9630587377621225,0.9157760849615867,1.010319841228287
8.2,0.9652016629742871,0.9184107464788178,1.012012250183768
8.3,0.9673218411293323,0.9210832163885243,1.01364396787812
8.4,0.9694192722272572,0.9236014338027022,1.0152189409937997
8.5,0.9714939562680625,0.9260832371369176,1.0168103356228255
8.6,0.973545893251748,0.9285012382530716,1.0184379152790664
8.7,0.9755750831783137,0.9309420433364344,1.0200045513538483
8.8,0.9775815260477597,0.9333174137135676,1.0216383583735478
8.9,0.9795652218600859,0.9356670197177743,1.0231715141106568
9,0.9815261706152923,0.9380798652486846,1.0246741846966492
9.1,0.9834643723133789,0.9404630599157204,1.0261837981097046
9.2,0.9853798269543456,0.9427861451494084,1.027687976744451
9.3,0.9872725345381927,0.9450480869079242,1.0291200699575556
9.4,0.9891424950649198,0.9473331759535548,1.0305656623050021
9.5,0.9909897085345272,0.9495688199475738,1.0320038944912124
9.6,0.9928141749470147,0.9517957500321208,1.0334588663341702
9.7,0.9946158943023825,0.9539393305622399,1.0348389763092913
9.8,0.9963948666006308,0.9560580648530562,1.0361835161589632
9.9,0.9981510918417589,0.9582115230691146,1.037564235811785
10,0.9998845700257675,0.9603398269216885,1.0389663449239364
10.1,1.0015953011526562,0.9623610800350784,1.0402964051362757
10.2,1.003283285222425,0.9644150211237292,1.0416017191114784
10.3,1.004948522235074,0.9664433013917596,1.0429064854646477
10.4,1.0065910121906034,0.9684297897012106,1.0441693767819713
10.5,1.008210755089013,0.9704337954374103,1.0454129800284422
10.6,1.0098077509303027,0.9724165401292726,1.0465767176597267
10.7,1.0113819997144726,0.9743115691410743,1.0477577496151562
10.8,1.0129335014415226,0.9761645899046529,1.0489142549336306
10.9,1.014462256111453,0.9779972018826484,1.0501710444688115
11,1.0159682637242633,0.9798078443766931,1.0513817925823143
11.1,1.0174515242799544,0.9815945863494322,1.0524795899113202
11.2,1.018912037778525,0.9833618294395655,1.0535369063982976
11.3,1.0203498042199766,0.9851750774159138,1.0546791048554802
11.4,1.0217648236043078,0.9869928812702834,1.0558117994236738
11.5,1.0231570959315195,0.9887830621143945,1.0567803635828057
11.6,1.0245266212016113,0.9905490688250758,1.057800812886753
11.7,1.025873399414583,0.9922732591168049,1.0587932320976357
11.8,1.0271974305704354,0.9938473708119016,1.0597629990496027
11.9,1.0284987146691678,0.9954680474653885,1.060715588748002
12,1.0297772517107804,0.9970039499768827,1.0616917276933389
12.1,1.0310330416952735,0.9985171329574103,1.0626132188723445
12.2,1.0322660846226464,1.0000098375863713,1.0635331470998175
12.3,1.0334763804929,1.0014799973430129,1.064441641865539
12.4,1.0346639293060331,1.0029532299772512,1.0653278784572224
12.5,1.0358287310620469,1.004420743314165,1.0662050539413002
12.6,1.0369707857609407,1.0058721315275871,1.067060417607313
12.7,1.0380900934027149,1.0073380728354329,1.067875437629004
12.8,1.0391866539873693,1.0087812079335416,1.0686726116794385
12.9,1.0402604675149036,1.0101448632245236,1.069485825743039
13,1.0413115339853185,1.0114851272996757,1.070272248280903
13.1,1.0423398533986135,1.0128725912428391,1.0710008295007611
13.2,1.0433454257547885,1.0142795111905387,1.0717064725097785
13.3,1.044328251053844,1.0155986350310453,1.0723849301899737
13.4,1.0452883292957795,1.0168725288622156,1.0730311895815654
13.5,1.0462256604805953,1.0180510487060634,1.0736276215790728
13.6,1.0471402446082914,1.0192061259943113,1.0742004321730891
13.7,1.0480320816788673,1.0203701493905732,1.0747563478088402
13.8,1.048901171692324,1.0215228925324653,1.0753732017347775
13.9,1.0497475146486606,1.0226869269023684,1.0759881910501123
14,1.0505711105478772,1.0238727108188135,1.076534550853429
14.1,1.0513719593899744,1.0250363576945176,1.0770336373993343
14.2,1.0521500611749515,1.026144248995179,1.0775135633087198
14.3,1.052905415902809,1.0271850592340137,1.0779493549390584
14.4,1.0536380235735467,1.028252096605776,1.0783425401662279
14.5,1.0543478841871647,1.0292804496574686,1.078711105053691
14.6,1.0550349977436628,1.0302620608268807,1.0790571178300947
14.7,1.055699364243041,1.031235884966014,1.0793959977509298
14.8,1.0563409836852997,1.032220586711814,1.0797378503040571
14.9,1.0569598560704383,1.0331872283177193,1.0800588624108158
15,1.0575559813984574,1.0341345248790665,1.0803462438619236
15.1,1.0581293596693562,1.0350596114982973,1.0806080054877363
15.2,1.0586799908831357,1.0359624881754115,1.080865461608504
15.3,1.0592078750397955,1.0368146737867305,1.0810408195069958
15.4,1.059713012139335,1.0376388575501148,1.0811891856166007
15.5,1.060195402181755,1.0385011201049108,1.0813069562071917
15.6,1.0606550451670551,1.0393361818363167,1.0814343506278075
15.7,1.0610919410952355,1.0400809833691755,1.0815124649059775
15.8,1.0615060899662963,1.0407629704387702,1.0815327380984874
15.9,1.061897491780237,1.0414328716099879,1.0815569588172844
16,1.062266146537058,1.0421322325989113,1.081523918777989
16.1,1.0626120542367592,1.0427626025364596,1.0814886592713933
16.2,1.0629352148793405,1.043404887166699,1.0814791534318604
16.3,1.0632356284648024,1.044040222392254,1.0815773803399082
16.4,1.063513294993144,1.0446510573487477,1.081569217544448
16.5,1.0637682144643663,1.045263199621061,1.0814896380470034
16.6,1.0640003868784684,1.0457467411955406,1.0813974168344185
16.7,1.0642098122354509,1.0462132528011483,1.0813105647586878
16.8,1.0643964905353136,1.0466559198383916,1.0811658350564657
16.9,1.0645604217780564,1.0471307317075087,1.081052175543774
17,1.0647016059636796,1.047593943481679,1.080945679896007
17.1,1.064820043092183,1.048032068496822,1.080704946726206
17.2,1.0649157331635664,1.048414822584825,1.080473103014926
17.3,1.0649886761778302,1.0487587496800774,1.0802701676383055
17.4,1.0650388721349742,1.0490861946441545,1.0800523672707014
17.5,1.0650663210349984,1.0494626095561537,1.0798536873258888
17.6,1.0650710228779028,1.049744224720735,1.079718157094371
17.7,1.065052977663687,1.049881778134976,1.0795582127833612
17.8,1.065012185392352,1.050118193452301,1.0793671122361133
17.9,1.064948646063897,1.0502381332081674,1.0791095946387967
18,1.0648623596783224,1.0504538148012692,1.0787354899765216
18.1,1.0647533262356275,1.0506475551379924,1.0783695096208836
18.2,1.0646215457358132,1.0507797075798486,1.0780603802599782
18.3,1.0644670181788791,1.05089025265415,1.0776614146481078
18.4,1.0642897435648253,1.0509252505957711,1.0772447774135883
18.5,1.0640897218936516,1.0509307834849162,1.0768419782249983
18.6,1.063866953165358,1.0509703053794515,1.0763836033448277
18.7,1.0636214373799444,1.0509648717531759,1.0759598621726085
18.8,1.0633531745374114,1.0509449412338476,1.0755709714892556
18.9,1.0630621646377585,1.0508133237710626,1.0750711358778697
19,1.0627484076809857,1.050698932178543,1.0745119617180698
19.1,1.0624119036670931,1.050612256434132,1.0739791828923275
19.2,1.0620526525960807,1.0503351953233395,1.0734543304284911
19.3,1.061670654467949,1.0500472407332158,1.072929056236228
19.4,1.0612659092826973,1.0497530437988365,1.0724208972662277
19.5,1.0608384170403253,1.0494353395120797,1.0718815022226915
19.6,1.060388177740834,1.04913974249264,1.0713818163069804
19.7,1.0599151913842224,1.0488084938704338,1.0707745537230882
19.8,1.0594194579704919,1.0485143647911177,1.0701247177057593
19.9,1.0589009774996407,1.0481794523334256,1.069457515131575
20,1.0583597499716701,1.0476323401872363,1.0687457370793696
20.1,1.0577957753865799,1.0471388982609389,1.0680976653297733
20.2,1.0572090537443697,1.0466246450240815,1.0674499888944302
20.3,1.0565995850450398,1.0460359269567356,1.0667929837994947
20.4,1.0559673692885898,1.0454190545283184,1.066005148396028
20.5,1.0553124064750203,1.0448385630460313,1.0652641957548101
20.6,1.0546346966043307,1.0441088837230204,1.0643926642058619
20.7,1.0539342396765219,1.0434203314771144,1.0636260819732326
20.8,1.053211035691593,1.0427134194966925,1.0629191194175718
20.9,1.052465084649544,1.042065258902551,1.062085243581337
21,1.0516963865503757,1.0412299105613192,1.0612460883678443
21.1,1.0509049413940872,1.0403593444971866,1.0605027815517034
21.2,1.0500907491806792,1.0395270992984318,1.0596584279033392
21.3,1.0492538099101516,1.0386616467962366,1.0587517743128196
21.4,1.0483941235825038,1.037808910114586,1.0579617493261044
21.5,1.0475116901977362,1.0369373410822682,1.0571527216189256
21.6,1.0466065097558488,1.036001861609858,1.0562572630528626
21.7,1.0456785822568417,1.0350237398480577,1.0553784577427179
21.8,1.0447279077007152,1.0339986376666688,1.0544684806907723
21.9,1.0437544860874686,1.0330227629110802,1.0535810471730684
22,1.042758317417102,1.0319796531212757,1.0526478769364935
22.1,1.0417394016896158,1.0308692620323454,1.0516798774429321
22.2,1.0406977389050096,1.029678362798367,1.0507914902225877
22.3,1.039633329063284,1.0285863833785511,1.049824066929464
22.4,1.0385461721644385,1.0274331011754252,1.0488112203605178
22.5,1.037436268208473,1.0261973659567865,1.0478128251597143
22.6,1.0363036171953879,1.0248702610499596,1.0468726926408158
22.7,1.0351482191251828,1.0236251600805524,1.045837408623373
22.8,1.0339700739978581,1.0222484769142208,1.0449371167068628
22.9,1.0327691818134137,1.0208569046226148,1.0439016566584933
23,1.0315455425718492,1.0194502599507846,1.042859589786966
23.1,1.0302991562731652,1.018033985607566,1.0417723383726145
23.2,1.0290300229173612,1.0165563508123008,1.040702495315247
23.3,1.0277381425044376,1.0150150875037303,1.0396030248670665
23.4,1.026423515034394,1.0135104574748721,1.0384287728842472
23.5,1.0250861405072307,1.0119799692738507,1.0372872828312525
23.6,1.0237260189229476,1.010364452583457,1.0361775853137813
23.7,1.0223431502815448,1.0086515583604032,1.0350001228640855
23.8,1.0209375345830223,1.006905814037492,1.0338157593956976
23.9,1.0195091718273797,1.005295459644223,1.0326259835143774
24,1.0180580620146173,1.0036627327186272,1.0314042618204504
24.1,1.0165842051447354,1.0018375213393687,1.0301876368647895
24.2,1.0150876012177334,0.9999953134012567,1.0289868827400541
24.3,1.013568250233612,0.998146018643951,1.0277716262356171
24.4,1.0120261521923706,0.9963845083959771,1.026511228167784
24.5,1.0104613070940094,0.9946412003005725,1.0252283881714737
24.6,1.0088737149385283,0.9928803952299778,1.023816863163575
24.7,1.0072633757259277,0.99103636533556,1.0224623912690713
24.8,1.005630289456207,0.9891445793883694,1.0211155316764127
24.9,1.0039744561293666,0.9871727850836444,1.0198133919351104
25,1.0022958757454066,0.9851903463516034,1.0184670289398998
25.1,1.0005945483043266,0.9832025032935001,1.0170453553549272
25.2,0.9988704738061267,0.9811560527620671,1.0156363566372026
25.3,0.9971236522508075,0.979202864462158,1.0142548866853245
25.4,0.9953540836383681,0.9771972087825624,1.0128321428483738
25.5,0.993561767968809,0.9751330368666631,1.0113320017101532
25.6,0.99174670524213,0.9731030697499786,1.0098838080157435
25.7,0.9899088954583313,0.971012216652386,1.0083773666478324
25.8,0.988048338617413,0.968829966878105,1.0068409870696151
25.9,0.9861650347193747,0.9666912295262466,1.0052863384178639
26,0.9842589837642166,0.9644676498616142,1.0037521630751358
26.1,0.9823301857519389,0.9622212824952336,1.0021458823139422
26.2,0.980378640682541,0.9598945015055159,1.0005050574769898
26.3,0.9784043485560239,0.9575138515130117,0.9988534283039096
26.4,0.9764073093723866,0.9551352145701411,0.9971801700824146
26.5,0.9743875231316295,0.9528345625211184,0.9954984798789379
26.6,0.9723449898337526,0.9505513833080016,0.9937956069830198
26.7,0.9702797094787561,0.9482335206879862,0.9920530195684036
26.8,0.9681916820666399,0.9457341731825613,0.9902951868659222
26.9,0.9660809075974035,0.9432045080007598,0.9885552898976978
27,0.9639473860710477,0.9408008185962026,0.9867906875448438
27.1,0.9617911174875717,0.9382720640320725,0.9849658426765128
27.2,0.9596121018469762,0.9357207774830938,0.983114059283757
27.3,0.957410339149261,0.9331781673136276,0.9812430363675303
27.4,0.9551858293944259,0.9305996778766692,0.9793891075204794
27.5,0.9529385725824708,0.927998410271599,0.9775122722311302
27.6,0.9506685687133962,0.9253743644984169,0.9756120082622304
27.7,0.9483758177872016,0.9227616215235972,0.9736883156137802
27.8,0.9460603198038875,0.9200820196847184,0.9717411942857795
27.9,0.9437220747634534,0.9174025179394927,0.969793084526305
28,0.9413610826658995,0.9147570558362361,0.9678219357510212
28.1,0.9389773435112259,0.9120292564865871,0.9658284162682533
28.2,0.9365708572994322,0.9092787124965225,0.9638128683898787
28.3,0.9341416240305193,0.9065067142613199,0.961749510345576
28.4,0.9316896437044861,0.903713723237439,0.9596435169792908
28.5,0.9292149163213334,0.9008776185820822,0.957515278101071
28.6,0.9267174418810606,0.8979935560514584,0.9553647937109162
28.7,0.9241972203836681,0.895100831821418,0.9532109026490286
28.8,0.9216542518291563,0.8922188149884305,0.951060180860459
28.9,0.9190885362175242,0.8893630642792241,0.9488885233481563
29,0.9165000735487724,0.8864216340587352,0.9466699333841627
29.1,0.9138888638229007,0.8835010544603803,0.9444193479969221
29.2,0.9112549070399094,0.8805592159033546,0.9421312708548591
29.3,0.9085982031997983,0.877566375942838,0.9397773118040116
29.4,0.9059187523025674,0.8745259750003791,0.937399916663836
29.5,0.9032165543482167,0.8714979413378683,0.9350352009920271
29.6,0.9004916093367461,0.8684598003935424,0.9327039905350736
29.7,0.8977439172681558,0.8653958854441886,0.9303265664325879
29.8,0.8949734781424458,0.8622686713778982,0.9278909924808171
29.9,0.8921802919596158,0.8591169086211696,0.925430750791862
30,0.8893643587196661,0.8559419755721531,0.9229477746239965
30.1,0.8865256784225966,0.852744550475741,0.920470157961974
30.2,0.8836642510684072,0.8495160934775825,0.9180028439028654
30.3,0.8807800766570983,0.8462601653315261,0.9155137056543132
30.4,0.8778731551886696,0.842980224884988,0.9129583903849596
30.5,0.8749434866631209,0.8397031862997847,0.9103768799813148
30.6,0.8719910710804524,0.8364120611615686,0.9077827235304134
30.7,0.8690159084406641,0.833102797669228,0.9051978406100785
30.8,0.8660179987437563,0.8297548270721748,0.902558286678792
30.9,0.8629973419897283,0.8263587541923634,0.8999474604962296
31,0.8599539381785808,0.8229169507304042,0.8972613299997801
31.1,0.8568877873103133,0.8194506285306578,0.8946123909293604
31.2,0.8537988893849262,0.8160538961684844,0.8918853665010298
31.3,0.8506872444024194,0.8125831632368278,0.8891871612853625
31.4,0.8475528523627927,0.8090744074413427,0.8864667980661787
31.5,0.844395713266046,0.805550458162611,0.883730508938382
31.6,0.8412158271121797,0.8019313902047505,0.8809773345293126
31.7,0.8380131939011934,0.7982664871065253,0.8782294966797128
31.8,0.8347878136330877,0.7946632854652362,0.8754602874187525
31.9,0.831539686307862,0.7911071934241628,0.8726389426658152
32,0.8282688119255165,0.7874195025849821,0.8697536076088791
32.1,0.8249751904860511,0.7837463699575546,0.8669278152268602
32.2,0.821658821989466,0.7800856951436239,0.86403649522299375
32.3,0.8183197064357612,0.7764036046699092,0.8610651737527234
32.4,0.8149578438249367,0.77263889458192625,0.8581461545528734
32.5,0.8115732341569921,0.7688563257253236,0.8551976046030827
32.6,0.8081658774319278,0.7651110498225419,0.8522590629306765
