temp,mean,conf_lower,conf_upper
0,2.330600059859786,2.1519856586249504,2.4973227966894855
0.1,2.330702916656175,2.1526678820678224,2.496862534335138
0.2,2.3307875870264385,2.1534169771806146,2.496311060277688
0.3,2.3308540709705765,2.1542646347174053,2.495749404405227
0.4,2.3309023684885886,2.1550152429427727,2.495386516627966
0.5,2.3309324795804747,2.1556498268543964,2.4948952013710994
0.6,2.3309444042462357,2.156396566742612,2.4944323730925175
0.7,2.3309381424858713,2.156906169170619,2.4937972233734835
0.8,2.3309136942993813,2.15742356134641,2.493272217685387
0.9,2.3308710596867654,2.158127199108591,2.4926857812011143
1,2.3308102386480236,2.1585069316379677,2.492017130461784
1.1,2.330731231183157,2.1587422955429307,2.4916238371110606
1.2,2.330634037292165,2.1589790808285665,2.4910601376189523
1.3,2.3305186569750465,2.1593905548653973,2.490469306223156
1.4,2.330385090231803,2.159790028310229,2.49011502063314
1.5,2.3302333370624333,2.1599416358423604,2.489728019348209
1.6,2.3300633974669385,2.160059183775866,2.4892304312888145
1.7,2.329875271445318,2.16015565126502,2.4887230878730175
1.8,2.3296689589975723,2.1606231749181064,2.4881487182305433
1.9,2.3294444601237005,2.160866473001777,2.4876006589023323
2,2.3292017748237033,2.1611205644614815,2.4871888449968624
2.1,2.328940903097581,2.161101417437616,2.486461123483001
2.2,2.3286618449453322,2.160934397411787,2.4859015940501266
2.3,2.3283646003669585,2.1607923155490316,2.485296121025419
2.4,2.328049169362459,2.160725466937257,2.4847362012763567
2.5,2.327715551931834,2.1606569410731966,2.4842207810458445
2.6,2.327363748075083,2.1608310296016895,2.483685017658914
2.7,2.326993757792207,2.160873984609278,2.482933046565061
2.8,2.3266055810832054,2.1606534907638055,2.482176860853002
2.9,2.326199217948078,2.1604158401446387,2.4815764118456
3,2.325774668386825,2.1601701236969433,2.481091426195219
3.1,2.325331932399446,2.1599873109463195,2.4803774238092355
3.2,2.324871009985942,2.1597444018596756,2.479559763950702
3.3,2.3243919011463126,2.1596284876115117,2.4787473432233424
3.4,2.3238946058805574,2.159232613103423,2.4779161319639167
3.5,2.3233791241886763,2.1590089849734664,2.477278725353644
3.6,2.32284545607067,2.15846986248572,2.4763503279496946
3.7,2.3222936015265376,2.1581526135825273,2.475421864022021
3.8,2.3217235605562805,2.157819622047948,2.474688817588574
3.9,2.321135333159897,2.157467732350634,2.4738132218448
4,2.320528919337388,2.1567744972141223,2.4730892432774025
4.1,2.319904319088754,2.1561930510587453,2.4724091975580236
4.2,2.319261532413994,2.1556439435420724,2.471774483821602
4.3,2.3186005593131087,2.155039408832287,2.470983398733135
4.4,2.3179213997860977,2.154502805200652,2.4703082949651214
4.5,2.3172240538329607,2.1540226351058105,2.469789642548151
4.6,2.3165085214536987,2.1533651176502326,2.469146950411317
4.7,2.3157748026483107,2.152774908739978,2.468484347888869
4.8,2.3150228974167972,2.1521672099745137,2.4677661189160576
4.9,2.3142528057591587,2.1513898943807988,2.4670105067235495
5,2.313464527675394,2.150457781962812,2.4661495269002014
5.1,2.312658063165504,2.1493725742828182,2.465658520608388
5.2,2.311833412229488,2.1486030037855346,2.464957586919275
5.3,2.310990574867347,2.1476676158316357,2.4640654378102624
5.4,2.31012955107908,2.146632933445502,2.4633259281508697
5.5,2.309250340864687,2.14578647865221,2.4626945795192547
5.6,2.3083529442241693,2.144858026732698,2.4618996972599154
5.7,2.3074373611575254,2.143755518137354,2.4610966273676933
5.8,2.3065035916647565,2.142810634946736,2.4603741360719855
5.9,2.3055516357458616,2.141756808697828,2.4593041814478847
6,2.304581493400841,2.1407491043379308,2.4583662593203277
6.1,2.303593164629695,2.1398073103171464,2.457503179889506
6.2,2.3025866494324236,2.138866971518193,2.45658487865981
6.3,2.3015619478090263,2.1377029125482485,2.4554903421787366
6.4,2.3005190597595035,2.136522454858464,2.454391297476352
6.5,2.2994579852838557,2.135326818105705,2.4534301103577674
6.6,2.298378724382082,2.1341211499813784,2.4523063015257103
6.7,2.297281277054182,2.132799446898501,2.4513475852608524
6.8,2.2961656433001574,2.131651084336249,2.4503662007761697
6.9,2.2950318231200066,2.13039248046493,2.449362148071664
7,2.2938798165137304,2.1290915154589025,2.4483789850343394
7.1,2.2927096234813287,2.127753123217417,2.447300347253297
7.2,2.2915212440228014,2.1265194953406588,2.4462341493490376
7.3,2.2903146781381483,2.125273384723346,2.4450876255716243
7.4,2.28908992582737,2.124011576773216,2.4439198743532415
7.5,2.2878469870904654,2.1226439951415266,2.4426823426885695
7.6,2.286585861927436,2.1212046507044695,2.441439315040771
7.7,2.285306550338281,2.1198016608323504,2.4403888889861314
7.8,2.2840090523230003,2.1182758470020118,2.4391164436009047
7.9,2.2826933678815937,2.1167914037342737,2.437933070336984
8,2.2813594970140616,2.1154525675068583,2.43677842743999
8.1,2.2800074397204044,2.1139743329293044,2.4352948704395336
8.2,2.278637196000621,2.1125292044985056,2.4337901187807183
8.3,2.2772487658547123,2.1110741268442412,2.4323977339043052
8.4,2.2758421492826777,2.109450825013699,2.431140020204523
8.5,2.274417346284518,2.1078515273455865,2.429859179143388
8.6,2.2729743568602325,2.1063344920280307,2.428487495408343
8.7,2.271513181009822,2.104778144715371,2.4270663966168646
8.8,2.2700338187332854,2.103170452107561,2.4257300084501323
8.9,2.268536270030623,2.101556792911369,2.4243528036591533
9,2.267020534901835,2.100020056798628,2.4227521739642057
9.1,2.265486613346922,2.0984904494026666,2.4211930143544187
9.2,2.263934505365883,2.096944271671963,2.4197553465799118
9.3,2.262364210958718,2.0953487786956417,2.4184003221900143
9.4,2.2607757301254283,2.0936992093574913,2.4168090679030385
9.5,2.259169062866012,2.0920484010195883,2.415337717886354
9.6,2.2575442091804714,2.0904029060341793,2.4137879080287163
9.7,2.255901169068804,2.0886852747524545,2.412183141433893
9.8,2.2542399425310116,2.086921034135676,2.4105961955170985
9.9,2.252560529567094,2.0850858144039304,2.4089791373974214
10,2.2508629301770497,2.0833114382288382,2.407335727518595
10.1,2.2491471443608813,2.0815429248840935,2.405666759230681
10.2,2.247413172118586,2.07972644318589,2.4039722325336816
10.3,2.245661013450166,2.078038450875999,2.4022484530235753
10.4,2.24389066835562,2.0762578493702684,2.4004725332132795
10.5,2.2421021368349487,2.0744673122603494,2.39866970040664
10.6,2.2402954188881514,2.0727348945029678,2.396843745207852
10.7,2.238470514515229,2.0710768887316364,2.3951107179881728
10.8,2.2366274237161807,2.0693741048717125,2.3932813954149683
10.9,2.234766146491007,2.067661654764043,2.3914015989513557
11,2.232886682839707,2.0657908684321264,2.3894104044346216
11.1,2.233092396432485,2.0675156360833125,2.388051068317049
11.2,2.2332617371730112,2.0691281395803274,2.386704401701482
11.3,2.233394705061287,2.070703072179501,2.3851694563743324
11.4,2.2334913000973113,2.072389540988179,2.383713932646838
11.5,2.2335515222810844,2.0740028112322095,2.382345633408791
11.6,2.2335753716126066,2.075539925069185,2.380944937877999
11.7,2.2335628480918768,2.077064473656148,2.379428027288758
11.8,2.233513951718897,2.0785484498302065,2.377948660430578
11.9,2.233428682493665,2.07999185359136,2.376433975735462
12,2.2333070404161823,2.0813946849396086,2.374961326276495
12.1,2.2331490254864486,2.0827641417354514,2.373517368604599
12.2,2.232954637704463,2.0841466054197344,2.371945051581445
12.3,2.232723877070227,2.0854063625568093,2.370435170595028
12.4,2.23245674358374,2.0867096569866126,2.368746339297168
12.5,2.2321532372450017,2.087949972230626,2.367015558641853
12.6,2.231813358054012,2.0891933713002038,2.36524376887924
12.7,2.2314371060107705,2.0903996146115844,2.3634896583269116
12.8,2.231024481115279,2.0915687021647695,2.361736978870716
12.9,2.2305754833675357,2.0927006339597582,2.359886415969966
13,2.230090112767541,2.0937255196604223,2.3579635742951917
13.1,2.229568369315296,2.0946611480169866,2.3560072860096866
13.2,2.2290102530107987,2.0955613602603287,2.354017551113451
13.3,2.228415763854051,2.0964515941608446,2.352024872152649
13.4,2.2277849018450526,2.097220474435848,2.350144765913846
13.5,2.227117666983802,2.0979810033814648,2.3482189279639787
13.6,2.226414059270301,2.098709270902183,2.346339822466581
13.7,2.2256740787045484,2.0993977435353464,2.344410727531761
13.8,2.224897725286545,2.1000531474139223,2.342439428346692
13.9,2.2240849990162905,2.1006638038939203,2.340405607674705
14,2.2232358998937842,2.101225896227281,2.3380623988756666
14.1,2.222350427919027,2.1017241630309638,2.335869401529627
14.2,2.2214285830920186,2.102132361297292,2.3337927623717105
14.3,2.2204703654127593,2.102498688865717,2.3316620394486645
14.4,2.219475774881249,2.102831426833305,2.3293713375827396
14.5,2.218444811497487,2.1031576719233978,2.327076749404474
14.6,2.2173774752614746,2.1034704997025906,2.3247197097377406
14.7,2.2162737661732104,2.103668083905581,2.3222600519625116
14.8,2.215133684232695,2.104005499348232,2.3200961654112273
14.9,2.213957229439929,2.104110615724071,2.3178937323471995
15,2.212744401794911,2.1045220779956537,2.315690476291714
15.1,2.2114952012976423,2.1047205277278622,2.3132959056978026
15.2,2.2102096279481227,2.1044665996505274,2.3108394373528465
15.3,2.2088876817463516,2.1043861915547586,2.308398123688276
15.4,2.2075293626923296,2.104274860543839,2.3058447883697495
15.5,2.206134670786056,2.104069284924339,2.3031651872977763
15.6,2.2047036060275316,2.103700741521962,2.300562755660989
15.7,2.2032361684167556,2.103466314611132,2.297917834562961
15.8,2.201732357953729,2.1031938854457524,2.2952092483921875
15.9,2.200192174638451,2.1029920963385793,2.2925914617947525
16,2.198615618470922,2.102662157755855,2.2900386598267524
16.1,2.197002689451142,2.1024208584642605,2.2874515918658336
16.2,2.19535338757911,2.101665543419119,2.2848123128058653
16.3,2.1936677128548276,2.1010194578323653,2.282145045547094
16.4,2.1919456652782943,2.100547962240497,2.2794477014012253
16.5,2.1901872448495086,2.1000148302301676,2.2765904103873043
16.6,2.1883924515684727,2.099362246605101,2.2738048837992273
16.7,2.186561285435185,2.098624734767087,2.2707857021057665
16.8,2.184693746449647,2.097719276262155,2.2678804726381396
16.9,2.1827898346118575,2.0966272683848484,2.2649396606400942
17,2.180849549921817,2.0957010780040104,2.262104840671843
17.1,2.1788728923795246,2.094723619746219,2.2592817248899415
17.2,2.1768598619849815,2.0935763286892763,2.2564845777943345
17.3,2.174810458738188,2.092441455084911,2.253529776028335
17.4,2.172724682639142,2.091288592840477,2.2506096151777113
17.5,2.1706025336878456,2.089948468253826,2.2478681042774307
17.6,2.1684440118842976,2.0884708845003015,2.2451582477818377
17.7,2.1662491172284986,2.08703903917035,2.2422117433984208
17.8,2.164017849720449,2.0855756740866385,2.239521192627878
17.9,2.161750209360148,2.083718366652437,2.2366888838057433
18,2.159446196147595,2.0820493233838073,2.2336881473471073
18.1,2.1571058100827916,2.0800844173579485,2.231020143888829
18.2,2.154729051165737,2.078088564861211,2.228312591683314
18.3,2.1523159193964316,2.075973423148433,2.225479088090864
18.4,2.1498664147748747,2.073961990028404,2.222541947178536
18.5,2.147380537301066,2.0718284804768414,2.219728024589844
18.6,2.1448582869750066,2.0696442043585366,2.216806975646591
18.7,2.1422996637966962,2.067554769774165,2.2139157003706518
18.8,2.139704667766135,2.065349344596976,2.2109577172575565
18.9,2.1370732988833216,2.0633397987655373,2.2080561088875257
19,2.1344055571482574,2.061037593819254,2.205025419070171
19.1,2.131701442560943,2.058843259358345,2.2020739192029097
19.2,2.1289609551213764,2.0565511333418396,2.1991823164866378
19.3,2.126184094829559,2.053950849444865,2.195863649408756
19.4,2.1233708616854905,2.051437326904705,2.192481962768874
19.5,2.1205212556891704,2.0488753914806734,2.1894855580474224
19.6,2.1176352768405997,2.0460998931032552,2.186107238958409
19.7,2.1147129251397776,2.043438727248976,2.1829156926056235
19.8,2.1117542005867045,2.041016322794794,2.179571012422866
19.9,2.1087591031813804,2.0386794968599853,2.1762031269748645
20,2.105727632923804,2.0362645762498586,2.1727905536664167
20.1,2.1026597898139774,2.0333852333392395,2.1693203321086125
20.2,2.0995555738519,2.030231513248479,2.1659186820443344
20.3,2.096414985037571,2.0273729590872582,2.16260205076338
20.4,2.093238023370991,2.0243215604703657,2.1591073177371682
20.5,2.090024688852159,2.0213435037572927,2.1555268717320204
20.6,2.0867749814810765,2.0185577491761264,2.152156168783726
20.7,2.0834889012577427,2.015590800351945,2.149108471627737
20.8,2.0801664481821582,2.012695977045243,2.1460895497333285
20.9,2.0768076222543224,2.0096815329583126,2.1426988274265497
21,2.0734124234742346,2.0065460270952746,2.1394075880746333
21.1,2.0699808518418963,2.0031965456860563,2.1357358730473464
21.2,2.0665129073573065,1.9999218938581635,2.132136573179954
21.3,2.063008590020466,1.9962916273660825,2.1287235094970356
21.4,2.059467899831375,1.992349001471893,2.1250620337649515
21.5,2.0558908367900317,1.9883607482768582,2.1214765252855017
21.6,2.052277400896437,1.9846030744096956,2.1179596992049174
21.7,2.048627592150592,1.980956094341773,2.114591741811775
21.8,2.044941410552496,1.9772497353624832,2.1111952845870223
21.9,2.041218856102148,1.9732977179050295,2.107761494641605
22,2.037459928799549,1.9692943625053987,2.104352087579838
22.1,2.033664628644699,1.965351670494699,2.1007833010055803
22.2,2.029832955637598,1.96161918304018,2.097029362913846
22.3,2.025964909778246,1.957963673632211,2.0934151740321516
22.4,2.0220604910666427,1.9541895305353687,2.0898898995856445
22.5,2.0181196995027877,1.949843654500065,2.08613824375649
22.6,2.014142535086682,1.9455740196809455,2.0823788302256716
22.7,2.0101289978183248,1.9410502831869092,2.078514608150565
22.8,2.0060790876977173,1.9365544856728598,2.0748452831687247
22.9,2.0019928047248583,1.932508820648179,2.0711755445551177
23,1.997870148899747,1.9281158798450164,2.067267740191711
23.1,1.993711120222386,1.9234139767613385,2.0636963103813204
23.2,1.9895157186927732,1.9185759471599078,2.0599432020409045
23.3,1.9852839443109094,1.913886778708466,2.0561516894081597
23.4,1.9810157970767945,1.9091597820638175,2.052585407971767
23.5,1.9767112769904278,1.904197753844969,2.0489699547283333
23.6,1.9723703840518105,1.8993285890812035,2.0451262113578417
23.7,1.9679931182609418,1.8944143207394002,2.041185363975856
23.8,1.963579479617823,1.8898470854278433,2.0371610133331175
23.9,1.9591294681224518,1.8850316014131834,2.0331486412120645
24,1.9546430837748296,1.8802109648686915,2.029259366634209
24.1,1.9501203265749565,1.8750992559237702,2.025041036568419
24.2,1.9455611965228319,1.869815790844929,2.0209777507040725
24.3,1.9409656936184572,1.8644957498690042,2.016954169535824
24.4,1.9363338178618301,1.8591570120575738,2.0130821624634967
24.5,1.9316655692529523,1.8537917325823736,2.0092437983533884
24.6,1.926960947791823,1.8486442030882424,2.0053742345305317
24.7,1.922219953478443,1.8433406756617225,2.001277606444422
24.8,1.9174425863128122,1.8377385755623885,1.997165907183776
24.9,1.9126288462949297,1.832093767279518,1.9931990880714554
25,1.907778733424796,1.8264159429574787,1.9893312755285668
25.1,1.902892247702411,1.820776072121871,1.9851081514465339
25.2,1.8979693891277751,1.8150511547396042,1.9807681288692254
25.3,1.8930101577008882,1.8094282819851777,1.9764209468978486
25.4,1.88801455342175,1.8035004987601866,1.9722015931293182
25.5,1.8829825762903605,1.797720011702688,1.9680421079871357
25.6,1.8779142263067197,1.7915990800767596,1.9637059958819134
25.7,1.8728095034708279,1.7856750718247456,1.9593588892015878
25.8,1.8676684077826855,1.7797103707307054,1.9551962719641107
25.9,1.8624909392422913,1.7737018212632907,1.9508781743532504
26,1.8572770978496458,1.7673269761460386,1.9466990110648057
26.1,1.8520268836047498,1.7610389697992814,1.9425528424345986
26.2,1.8467402965076019,1.7547583518805894,1.9384410675975667
26.3,1.8414173365582036,1.7483973565581445,1.934160353240585
26.4,1.8360580037565537,1.7420793421032104,1.9299825395905106
26.5,1.8306622981026526,1.7357928109744303,1.9259501928887564
26.6,1.8252302195965002,1.7292571817167137,1.921741097870299
26.7,1.8197617682380969,1.7226860015916179,1.9174480622618568
26.8,1.8142569440274425,1.7160718363540892,1.9130856154445242
26.9,1.8087157469645372,1.7092648021013486,1.9087091992057192
27,1.8031381770493802,1.7022785520351562,1.9041719696360973
27.1,1.7975242342819722,1.695261747510644,1.89999536819424
27.2,1.7918739186623127,1.6885466340862636,1.8956124346748109
27.3,1.786187230190403,1.6816417747034436,1.8910117432643456
27.4,1.7804641688662413,1.6746130212981947,1.8865518477163319
27.5,1.7747047346898284,1.6677478958955936,1.8821883717881427
27.6,1.768908927661165,1.6606374600867784,1.8776496208242774
27.7,1.7630767477802496,1.653261167438281,1.8729844431300755
27.8,1.7572081950470837,1.646016614245254,1.8684825283133824
27.9,1.7513032694616668,1.6387092638727936,1.8636212440137285
28,1.745361971023998,1.6314867886141016,1.8588800860560508
28.1,1.7393842997340783,1.624305325046537,1.8542018646405403
28.2,1.7333702555919075,1.6171004180528183,1.8494565152715876
28.3,1.7273198385974857,1.6096468922401233,1.8445230244966901
28.4,1.7212330487508127,1.6021552961462442,1.8395731193459133
28.5,1.7151098860518883,1.5946367483181905,1.8347491656243682
28.6,1.708950350500713,1.5869855339967849,1.8297506840347832
28.7,1.7027544420972864,1.5791923549325226,1.824905388857829
28.8,1.696522160841609,1.571767236320155,1.820076251297904
28.9,1.6902535067336801,1.564138123068172,1.8152445221423026
29,1.6839484797734998,1.5563761306265618,1.8104223755160063
29.1,1.6776070799610685,1.5485549693176592,1.8054934470081159
29.2,1.6712293072963862,1.5408205479240336,1.8005656512391324
29.3,1.6648151617794529,1.5330488399134803,1.7955271138637636
29.4,1.6583646434102683,1.525236630693736,1.7904157106822007
29.5,1.651877752188832,1.517293843916059,1.7852228683829428
29.6,1.6453544881151454,1.509254490456641,1.7800128714291534
29.7,1.6387948511892068,1.5012266876857872,1.774983817397118
29.8,1.632198841411018,1.4931165218413835,1.7697210853630905
29.9,1.6255664587805776,1.485043870258491,1.7645349338440934
30,1.6188977032978855,1.477092740427292,1.7593605380438029
30.1,1.6121925749629429,1.4689781269573245,1.7538752445694927
30.2,1.6054510737757486,1.4608725343454831,1.7483648334560655
30.3,1.598673199736304,1.4527365710878801,1.7429553258185115
30.4,1.5918589528446074,1.4443231973126975,1.7376469158929515
30.5,1.5850083331006601,1.4358325232267946,1.7322371535090095
30.6,1.5781213405044614,1.427609090124604,1.7267241513596858
30.7,1.5711979750560117,1.4193541955444413,1.7211983641583877
30.8,1.564238236755311,1.4110243948147843,1.7157535821343495
30.9,1.5572421256023588,1.402452322664414,1.7102563186235915
31,1.5502096415971554,1.3938050303952405,1.7045239653463926
31.1,1.543140784739701,1.3851388827511375,1.698821417291881
31.2,1.5360355550299953,1.3764335451123142,1.6932263045630538
31.3,1.5288939524680387,1.3676536425278976,1.6876999134881787
31.4,1.521715977053831,1.3587937141303257,1.6819255916883762
31.5,1.5145016287873716,1.3499065972816755,1.6762594733310179
31.6,1.5072509076686615,1.341139965105673,1.6705031943048585
31.7,1.4999638136977,1.3322874189818052,1.6646802577136652
31.8,1.4926403468744878,1.3233633615326845,1.658863440972653
31.9,1.4852805071990243,1.314344202715941,1.6530048112009106
32,1.4778842946713089,1.305364555252768,1.6471081288421705
32.1,1.470451709291343,1.296365892181644,1.6411395952609595
32.2,1.4629827510591256,1.2872943823187633,1.6351192484743193
32.3,1.4554774199746578,1.2783264834058963,1.629057540764284
32.4,1.4479357160379382,1.269241096858891,1.6229315846437697
32.5,1.4403576392489674,1.2601208962693982,1.6167666074166216
32.6,1.4327431896077454,1.2510339365941447,1.6105663996870359
32.7,1.4250923671142723,1.2419965104666428,1.6044470118262697
32.8,1.4174051717685487,1.2328894278122502,1.5982192205016892
32.9,1.4096816035705735,1.223747800471813,1.5919288471764104
33,1.4019216625203468,1.21442295846883,1.5855149676877207
