temp,mean,conf_lower,conf_upper
0,2.4949673209180743,2.307769798332343,2.6772275673258585
0.1,2.4957244709862607,2.309587963647758,2.677218688699615
0.2,2.496461630603987,2.3111035135835074,2.67719580157228
0.3,2.4971787997712527,2.3125467440727006,2.6771826556110554
0.4,2.4978759784880578,2.3141775877130057,2.6771860760645407
0.5,2.4985531667544025,2.3157156095462508,2.6771745698552847
0.6,2.4992103645702866,2.316976014763414,2.6771435111646795
0.7,2.4998475719357107,2.3182128853531037,2.677089565363887
0.8,2.5004647888506737,2.319453307486619,2.677020820599596
0.9,2.5010620153151772,2.32082510616845,2.676833724222591
1,2.50163925132922,2.3221808111942677,2.6768495481002366
1.1,2.502196496892802,2.3235134218905262,2.676575694720738
1.2,2.5027337520059234,2.3249917242025724,2.676175058708907
1.3,2.5032510166685844,2.3262338304911054,2.6761203855732596
1.4,2.503748290880786,2.327415910210494,2.6758523167033825
1.5,2.5042255746425264,2.3286854911746193,2.675587939228028
1.6,2.5046828679538065,2.329860913823616,2.6753647446020685
1.7,2.5051201708146262,2.3311416250370365,2.6751249459379727
1.8,2.505537483224985,2.3323281779353273,2.6750193352454996
1.9,2.505934805184884,2.333276729861041,2.674803621418888
2,2.5063121366943224,2.334221969856956,2.6743220892501633
2.1,2.5066694777532996,2.3352905493023384,2.674005695539573
2.2,2.5070068283618174,2.3363078191575153,2.6736086502622527
2.3,2.5073241885198745,2.3373110895716707,2.6732775236699577
2.4,2.5076215582274712,2.338283334499301,2.6729297199313073
2.5,2.5078989374846072,2.3392170975607467,2.6727051725462045
2.6,2.508156326291283,2.339996281492016,2.672486384314445
2.7,2.5083937246474988,2.3405386050070027,2.6722579588870174
2.8,2.508611132553253,2.3411637100476765,2.6718999407227164
2.9,2.508808550008548,2.341677153128926,2.6714927206470405
3,2.508985977013382,2.3424764193781122,2.6711155337001973
3.1,2.5091434135677555,2.3431781327762566,2.6709048262093873
3.2,2.509280859671669,2.343835224131044,2.6707156211692635
3.3,2.5093983153251216,2.344485160335016,2.670539687889871
3.4,2.5094957805281135,2.3452801844452855,2.670269341693426
3.5,2.509573255280646,2.34591591672561,2.669866350881151
3.6,2.5096307395827173,2.3464470644428603,2.6695022161682673
3.7,2.5096682334343283,2.346859089511324,2.66916151720167
3.8,2.5096857368354786,2.347269238690962,2.668780641072733
3.9,2.509683249786169,2.3474541658719694,2.668458926000654
4,2.509660772286399,2.3478480363118353,2.6680850530552362
4.1,2.509618304336168,2.3482902906213443,2.667847136377561
4.2,2.509555845935477,2.348356702091393,2.667560475501838
4.3,2.5094733970843253,2.3486253437562254,2.667347425683126
4.4,2.509370957782714,2.34866577118133,2.6670449979082864
4.5,2.5092485280306414,2.349017330286431,2.6668176751479504
4.6,2.5091061078281083,2.349351645578281,2.6665118195343567
4.7,2.5089436971751153,2.3493670601235355,2.66618381783601
4.8,2.508761296071661,2.349577519271218,2.665796949024474
4.9,2.5085589045177477,2.349349371031055,2.6654885048615644
5,2.508336522513373,2.349362472933817,2.6650829384876373
5.1,2.508094150058538,2.349363735684659,2.664676150328428
5.2,2.507831787153243,2.3492460948761202,2.6643136147421993
5.3,2.507549433797487,2.349205859291431,2.663884549336477
5.4,2.507247089991271,2.3491310518456094,2.6635112290831966
5.5,2.506924755734594,2.3489986613105094,2.6630637330776272
5.6,2.5065824310274567,2.3487718696448736,2.6626419525232152
5.7,2.5062201158698594,2.3485314930376906,2.662091933811417
5.8,2.5058378102618013,2.3482734398770653,2.6615893469969705
5.9,2.505435514203283,2.3480219112197944,2.6612880206044762
6,2.5050132276943042,2.347704404827692,2.661169653321346
6.1,2.5045709507348652,2.3473431128806737,2.660694873942285
6.2,2.504108683324966,2.3470148073474695,2.6599946971594726
6.3,2.5036264254646055,2.3464612165607424,2.659423332201028
6.4,2.503124177153785,2.345771519989305,2.6590272534729746
6.5,2.5026019383925044,2.34533747668213,2.6586074877266905
6.6,2.5020597091807626,2.3446634735200296,2.6581640349621756
6.7,2.5014974895185613,2.3442100155758605,2.6575645463631106
6.8,2.5009152794058984,2.343626160105483,2.6568959135464754
6.9,2.500313078842776,2.343196336483406,2.656197313837527
7,2.4996908878291935,2.3427497259192624,2.6555438996181118
7.1,2.4990487063651496,2.342167170140363,2.6549625833016024
7.2,2.4983865344506455,2.3415592542223953,2.654359740293642
7.3,2.497704372085681,2.3409745545433314,2.653741802255056
7.4,2.4970022192702563,2.3403223265937747,2.653178922762259
7.5,2.4962800760043713,2.3393967400925293,2.6527946219037246
7.6,2.4955379422880255,2.338546531081751,2.652101151994814
7.7,2.4947758181212194,2.3376832931948117,2.651343637050209
7.8,2.493993703503953,2.3367401368801564,2.6505441604705373
7.9,2.4931915984362263,2.3358435751209923,2.6496718496693576
8,2.492369502918039,2.334660169728793,2.6489625218266415
8.1,2.491527416949391,2.3338302165980176,2.648125465307325
8.2,2.490665340530283,2.333030715788546,2.6472679563101256
8.3,2.489783273660714,2.3319193412810435,2.646391963036784
8.4,2.488881216340685,2.330737974166645,2.645508531559332
8.5,2.487959168570196,2.3297595095101187,2.6446291582680113
8.6,2.487017130349246,2.3286950978005914,2.6437296088370577
8.7,2.4860551016778354,2.3277439240637623,2.6428084429745975
8.8,2.4850730825559646,2.3266185998448563,2.6418562277766346
8.9,2.4840710729836335,2.325520469515146,2.6408774036769533
9,2.483049072960842,2.324428576524448,2.6398748988411986
9.1,2.484563373097215,2.3274193315856464,2.6399719069092598
9.2,2.486037692332667,2.330233808823067,2.640004121975686
9.3,2.487472030667198,2.333071368521185,2.6400138811341534
9.4,2.488866388100808,2.335874724915763,2.6400838238354414
9.5,2.4902207646334977,2.338663400173452,2.6400847107005063
9.6,2.4915351602652667,2.341508065886825,2.640016876179746
9.7,2.492809574996114,2.3443013115524156,2.6399748215534244
9.8,2.494044008826041,2.3469863472492847,2.639935080242008
9.9,2.495238461755047,2.3495755063614565,2.6398075945287216
10,2.4963929337831323,2.352106384241324,2.639568109064849
10.1,2.497507424910297,2.3546334539326512,2.6393280990351737
10.2,2.4985819351365404,2.357197752260652,2.639089370733437
10.3,2.4996164644618633,2.3596976073826337,2.638874521828249
10.4,2.5006110128862646,2.3619311305166084,2.63860345819771
10.5,2.501565580409746,2.3640297558215106,2.638257145174708
10.6,2.5024801670323056,2.36613628991584,2.637888142527571
10.7,2.5033547727539442,2.3682366196579903,2.6374531765448292
10.8,2.504189397574663,2.3702964559762183,2.6369705216724117
10.9,2.5049840414944606,2.3722751822436177,2.636449539410382
11,2.5057387045133375,2.3742779472968767,2.6358827558487112
11.1,2.506453386631293,2.3762015952252904,2.635286728268652
11.2,2.507128087848328,2.37808426584272,2.634649739261116
11.3,2.507762808164442,2.379882632283504,2.634007903421685
11.4,2.508357547579635,2.381607818682321,2.633393464868865
11.5,2.5089123060939076,2.3832962008449936,2.63280387647067
11.6,2.5094270837072594,2.3850091629018246,2.6321418679618995
11.7,2.5099018804196898,2.3867044744877006,2.6313839652175375
11.8,2.5103366962312,2.388359124697293,2.630556469496569
11.9,2.510731531141788,2.3900124972112113,2.6297441432191
12,2.5110863851514567,2.3914956662644,2.6289191662817792
12.1,2.5114012582602037,2.392926964028368,2.6281148865362836
12.2,2.5116761504680305,2.394316547700009,2.6273278801315554
12.3,2.511911061774936,2.3957150839176267,2.6264762127792283
12.4,2.51210599218092,2.397091435965456,2.625534589889649
12.5,2.5122609416859847,2.3984323640018346,2.6245551458578604
12.6,2.5123759102901273,2.399768008115884,2.623506188693982
12.7,2.5124508979933493,2.401164061344071,2.6224708906867393
12.8,2.5124859047956507,2.4024983808523843,2.6213743575893456
12.9,2.512480930697031,2.403637703507151,2.620230910061551
13,2.5124359756974908,2.404785426570759,2.618997373565687
13.1,2.512351039797029,2.40592719029223,2.6176439774454723
13.2,2.5122261229956466,2.4068605570492903,2.616247973384083
13.3,2.512061225293344,2.40768490555207,2.614812752520071
13.4,2.51185634669012,2.408537733364197,2.6133390782344215
13.5,2.5116114871859754,2.4092363000915142,2.611789939221513
13.6,2.5113266467809092,2.4099361498272565,2.6101865473452106
13.7,2.5110018254749233,2.41064736279668,2.6086659339994327
13.8,2.510637023268016,2.4113540721544666,2.6070282421033957
13.9,2.510232240160188,2.4120542084369,2.60532921268117
14,2.509787476151439,2.4128258304548207,2.603757923388889
14.1,2.5093027312417684,2.413588500534205,2.6020291598992698
14.2,2.5087780054311786,2.414436086246142,2.600188985072443
14.3,2.508213298719667,2.415244560239569,2.598535691160018
14.4,2.5076086111072344,2.416017621120517,2.597008161879261
14.5,2.506963942593881,2.416509049247754,2.5952426726438302
14.6,2.506279293179607,2.417032392275699,2.5931917155270656
14.7,2.5055546628644114,2.417453937429683,2.591186726004401
14.8,2.504790051648296,2.4177688549259413,2.5891381100595647
14.9,2.5039854595312594,2.4182187757123783,2.587129856434431
15,2.503140886513302,2.4183705465733643,2.585141521655174
15.1,2.502256332594423,2.4185399009268798,2.583147582582832
15.2,2.5013317977746237,2.418485446860689,2.5811157295696434
15.3,2.5003672820539036,2.4187371361862606,2.578908881882466
15.4,2.499362785432263,2.4188456429180256,2.576798040772581
15.5,2.498318307909701,2.418731563697169,2.5747951782578307
15.6,2.497233849486218,2.41865034017583,2.5726810772538604
15.7,2.4961094101618144,2.4185754069185297,2.570301653884608
15.8,2.4949449899364904,2.4184947269913164,2.568112885884435
15.9,2.4937405888102453,2.418412239232693,2.565810319015414
16,2.492496206783079,2.4183559472154674,2.56341699300612
16.1,2.491211843854992,2.4182485383862447,2.5610851539921837
16.2,2.4898875000259837,2.418045558656126,2.558616054678601
16.3,2.4885231752960557,2.4175267091076442,2.556204980581092
16.4,2.4871188696652062,2.417040988573172,2.5537882278445463
16.5,2.4856745831334357,2.416370538379579,2.5514492865923994
16.6,2.4841903157007437,2.415724877736327,2.5491199692888307
16.7,2.482666067367132,2.4153545324747743,2.5466206766713357
16.8,2.4811018381325995,2.4148018071196233,2.544160449891652
16.9,2.4794976279971452,2.4141702929177615,2.541844580787073
17,2.4778534369607703,2.4134616162575124,2.5395670169196842
17.1,2.476169265023475,2.412622458656929,2.5370822898009546
17.2,2.4744451121852586,2.41181296331584,2.534525789428719
17.3,2.4726809784461214,2.4106705867293448,2.531978738680051
17.4,2.4708768638060636,2.409758769266503,2.5291260661112074
17.5,2.4690327682650848,2.40853145131864,2.526517860369839
17.6,2.4671486918231844,2.407442949343004,2.5238179358243644
17.7,2.4652246344803643,2.4061869123917514,2.521078485430694
17.8,2.4632605962366223,2.4048110488702754,2.518312624809704
17.9,2.46125657709196,2.403394477576962,2.5155044904203763
18,2.459212577046377,2.4021074969223264,2.512648024566923
18.1,2.4571285960998726,2.4008839348751287,2.5097789704689437
18.2,2.455004634252448,2.3994348187039325,2.5070140961472207
18.3,2.452840691504102,2.3979834667802713,2.5042050220819547
18.4,2.450636767854835,2.3965878107501535,2.5013600753498597
18.5,2.4483928633046483,2.3950818057308894,2.4984687221700668
18.6,2.446108977853539,2.393318340440678,2.495588178741171
18.7,2.4437851115015103,2.391546255332812,2.4926015406799666
18.8,2.44142126424856,2.3896611363350946,2.4895579437246855
18.9,2.4390174360946895,2.387818985286213,2.486478252754453
19,2.4365736270398983,2.385997525921338,2.4836089158037624
19.1,2.434089837084185,2.3840756110678702,2.480499302946672
19.2,2.4315660662275516,2.382277156615425,2.477048915044411
19.3,2.429002314469997,2.3801356038517083,2.4740139002280013
19.4,2.4263985818115223,2.377996284615077,2.470722548966026
19.5,2.423754868252126,2.375910780491565,2.4673981653236634
19.6,2.421071173791809,2.3736410930203125,2.464133635192745
19.7,2.4183474984305713,2.3712055862082186,2.4609310553590866
19.8,2.4155838421684126,2.369015758659902,2.4576491703744106
19.9,2.4127802050053333,2.366406195411752,2.4544993710593537
20,2.409936586941333,2.363799958304572,2.4508955084805284
20.1,2.407052987976411,2.361115902920038,2.4476551578791232
20.2,2.4041294081105695,2.3587959497911557,2.444192769190513
20.3,2.4011658473438064,2.3560958825243676,2.4409555075558513
20.4,2.3981623056761228,2.3533243729912785,2.4374777666899066
20.5,2.3951187831075185,2.3502940092532714,2.4342126758392038
20.6,2.3920352796379927,2.3473801475078178,2.4309464292896883
20.7,2.388911795267547,2.3439928964158994,2.427664972749511
20.8,2.3857483299961793,2.340686469465788,2.424114541874106
20.9,2.3825448838238916,2.337339225205292,2.420605437210849
21,2.3793014567506825,2.334268085913923,2.4171598279531477
21.1,2.3760180487765528,2.3310391203788976,2.413972034141379
21.2,2.3726946599015024,2.3277692560609013,2.4108051670192254
21.3,2.3693312901255306,2.3244535265485964,2.407639435335157
21.4,2.365927939448638,2.321173310768528,2.404444670700035
21.5,2.362484607870826,2.3178897173711044,2.4010439104131183
21.6,2.3590012953920914,2.3144174344735484,2.397568349671598
21.7,2.355478002012436,2.3109180738941455,2.3941021111967236
21.8,2.3519147277318604,2.3073481667164986,2.3909131862868005
21.9,2.348311472550364,2.3033060635912808,2.387572932827511
22,2.344668236467947,2.299382806230174,2.3842541168042723
22.1,2.340985019484608,2.2956497514714433,2.380971147321195
22.2,2.3372618216003493,2.291515378287942,2.377496124225168
22.3,2.3334986428151687,2.287569233816476,2.3741719881900005
22.4,2.3296954831290684,2.283320463440523,2.37066592923089
22.5,2.3258523425420465,2.2792500149100965,2.36710506763077
22.6,2.3219692210541036,2.2751255266984414,2.3636033559799197
22.7,2.318046118665241,2.270649637813833,2.3602475961571927
22.8,2.3140830353754565,2.26628253770288,2.3567029846649206
22.9,2.3100799711847513,2.2615907422317973,2.3533389336137738
23,2.3060369260931255,2.25705016149915,2.349666123244861
23.1,2.301953900100578,2.252545095204179,2.3460759198884014
23.2,2.2978308932071108,2.247731987575261,2.342370641223413
23.3,2.2936679054127223,2.2430456298841825,2.3389363866289536
23.4,2.2894649367174127,2.238304215648252,2.3353675177151945
23.5,2.2852219871211825,2.2335867977426096,2.33170821344583
23.6,2.280939056624031,2.22887883343667,2.328047885828105
23.7,2.2766161452259595,2.2241338486034525,2.3242447867639062
23.8,2.2722532529269666,2.219347751631063,2.320474586307972
23.9,2.2678503797270526,2.2145447435762975,2.316891112984902
24,2.2634075256262185,2.209456963688312,2.313476065482108
24.1,2.258924690624463,2.204287952374525,2.3096513248901087
24.2,2.2544018747217867,2.1991263590214576,2.305557452808026
24.3,2.2498390779181894,2.1937174584076304,2.3015772906743504
24.4,2.245236300213672,2.188153808999469,2.297757312895105
24.5,2.240593541608233,2.1828203568283504,2.2938985462216697
24.6,2.235910802101873,2.1772155024602817,2.2900009906540424
24.7,2.231188081694593,2.1717683792691402,2.2860251304642576
24.8,2.226425380386391,2.1660106249120323,2.282136917203707
24.9,2.2216226981772693,2.1605578555170624,2.278217109723549
25,2.216780035067226,2.154843452307145,2.2741405401104595
25.1,2.2118973910562616,2.149314603060012,2.270182541063786
25.2,2.206974766144377,2.143708968447534,2.266234312806906
25.3,2.2020121603315714,2.137974537410861,2.262251346539902
25.4,2.197009573617845,2.132147136299675,2.258310325640167
25.5,2.191967006003198,2.125953796210565,2.254534770196173
25.6,2.186884457487629,2.119934956224645,2.2504369325232823
25.7,2.1817619280711402,2.1138075639761804,2.246200787790669
25.8,2.1765994177537302,2.107574669050362,2.2418416929693397
25.9,2.171396926535399,2.1013627844303975,2.237386413431819
26,2.166154454416148,2.0947834984708997,2.233079299204589
26.1,2.1608720013959752,2.0884249507681787,2.2286429394216936
26.2,2.1555495674748824,2.082068956474706,2.2241562947217144
26.3,2.150187152652868,2.0753731895711462,2.219650938567986
26.4,2.1447847569299325,2.068579531148635,2.2151234694409774
26.5,2.139342380306077,2.0619608762719395,2.2105853837309297
26.6,2.1338600227813,2.0552283754301865,2.2060124471120792
26.7,2.1283376843556026,2.048597532787453,2.2015045882550313
26.8,2.1227753650289842,2.041816494560925,2.196990448931311
26.9,2.1171730648014444,2.035040238298173,2.192429580092627
27,2.1115307836729844,2.028396893145178,2.187894858802058
27.1,2.105848521643603,2.0218663561505292,2.183402211724208
27.2,2.1001262787133013,2.0151531352415093,2.1788460561937435
27.3,2.0943640548820786,2.008458791156529,2.173939795104951
27.4,2.088561850149935,2.001732368561129,2.1691655420167866
27.5,2.082719664516871,1.9949781154780453,2.1644485495646997
27.6,2.076837497982885,1.9881849896942936,2.1596631357555216
27.7,2.070915350547979,1.981266537707854,2.1549038018695152
27.8,2.0649532222121523,1.9741492362005548,2.150147081327148
27.9,2.058951112975404,1.9669067692663387,2.1452520191330304
28,2.0529090228377354,1.9594984807597458,2.140177004349232
28.1,2.0468269517991455,1.9520868076409648,2.13510026906511
28.2,2.040704899859635,1.9447127867352094,2.1300236195744056
28.3,2.034542867019204,1.937499665752599,2.1249696535457274
28.4,2.028340853277852,1.9301622904630549,2.119858276857177
28.5,2.022098858635579,1.9227404463688509,2.114672536496614
28.6,2.0158168830923846,1.9153273517318856,2.109469245459281
28.7,2.0094949266482702,1.9078463382834658,2.1041987142684118
28.8,2.003132989303235,1.900282180546378,2.0988792173699338
28.9,1.996731071057278,1.8926490788636423,2.093520116263911
29,1.9902891719104008,1.8850397413153233,2.0881139370403154
29.1,1.9838072918626024,1.8773510119907164,2.082673916529685
29.2,1.9772854309138836,1.8696210307036831,2.077185376349444
29.3,1.970723589064244,1.8618013295459495,2.071690610307747
29.4,1.9641217663136827,1.8539058306078333,2.066387305069891
29.5,1.9574799626622013,1.8459733207633384,2.06111596735174
29.6,1.950798178109799,1.8380651841427675,2.0557723876548595
29.7,1.9440764126564756,1.8301391903810076,2.0503330918542297
29.8,1.9373146663022318,1.822172328572729,2.0448243812088394
29.9,1.9305129390470666,1.8141609215383663,2.039331018138791
30,1.9236712308909807,1.8059611719593454,2.0338251825407347
30.1,1.9167895418339738,1.7977098723050684,2.028082739860116
30.2,1.9098678718760465,1.789417179772431,2.0224026558586
30.3,1.902906221017198,1.7811792384659217,2.0168743525729576
30.4,1.8959045892574284,1.7729215932538978,2.011258047551776
30.5,1.8888629765967389,1.7646271871878627,2.005605875190099
30.6,1.8817813830351275,1.7563185033580866,1.9998690615225132
30.7,1.8746598085725958,1.7479344790573772,1.994079445626503
30.8,1.8674982532091433,1.7394977684302027,1.9882296903339953
30.9,1.8602967169447697,1.7309566512929109,1.9823341163047394
31,1.8530551997794753,1.7224242650737327,1.976405740200216
31.1,1.8457737017132594,1.713886250021689,1.9704388288426125
31.2,1.8384522227461235,1.705240448697904,1.9644201960961323
31.3,1.831090762878067,1.6965319010516646,1.9583573634990752
31.4,1.823689322109089,1.6878506924456294,1.9522558163257924
31.5,1.8162479004391905,1.6790140824856425,1.94599567104384
31.6,1.8087664978683704,1.6701362083171045,1.939614541276776
31.7,1.8012451143966302,1.6612170699400148,1.933314822898074
31.8,1.7936837500239693,1.6522886158972876,1.9268932298038544
31.9,1.786082404750387,1.643346041461728,1.9203998233591517
32,1.778441078575884,1.6343652370277897,1.9140798146923252
32.1,1.77075977150046,1.6253616315288488,1.9077195664466942
32.2,1.7630384835241155,1.6164444839333454,1.9010853563754204
32.3,1.75527721464685,1.6074634051003402,1.8944042806844306
32.4,1.7474759648686635,1.5984363237770296,1.8878434678887923
32.5,1.7396347341895564,1.5891287567451653,1.8810535013264205
32.6,1.731753522609528,1.579854251659164,1.8741949644987437
32.7,1.7238323301285792,1.5704842341815033,1.867520200518786
32.8,1.7158711567467098,1.561172533532479,1.8608098248080274
32.9,1.7078700024639186,1.5519950552611825,1.8540519175070664
33,1.6998288672802075,1.5425173211456826,1.8472131668352136
33.1,1.6917477511955747,1.5331144798643876,1.840324984360405
