temp,mean,conf_lower,conf_upper
0,0.7942026920039769,0.640660029996089,0.9460809485455488
0.1,0.7955192991168534,0.6428311693919149,0.946621501810819
0.2,0.7968261215900473,0.6449685362669384,0.9471563399237952
0.3,0.7981231594235589,0.647032297655401,0.9476854628844773
0.4,0.7994104126173882,0.6490818258761845,0.9482088706928653
0.5,0.800687881171535,0.6511171264464403,0.9487265633489592
0.6,0.8019555650859995,0.6531435854135603,0.9492385408527589
0.7,0.8032134643607816,0.6552393358539257,0.9497448032042646
0.8,0.8044615789958813,0.6573673814965164,0.9502641199117485
0.9,0.8056999089912984,0.659480239582362,0.9507600179565151
1,0.8069284543470332,0.6615779101114627,0.9512329204420584
1.1,0.8081472150630857,0.6636618959505275,0.9517127010873461
1.2,0.8093561911394558,0.6657310745959781,0.9521903876773812
1.3,0.8105553825761433,0.6677850572015229,0.9526623591151222
1.4,0.8117447893731486,0.6697499711194743,0.953127998754563
1.5,0.8129244115304715,0.6716407350085298,0.9535639497795028
1.6,0.8140942490481118,0.6734767268399635,0.9539882251072327
1.7,0.8152543019260698,0.6752918200519651,0.9544072805814263
1.8,0.8164045701643454,0.6770510085652427,0.9548335310308422
1.9,0.8175450537629386,0.6787971046985857,0.9552922371332968
2,0.8186757527218494,0.680530108451994,0.9557454450223491
2.1,0.8197966670410779,0.6822500198254677,0.9561931546979991
2.2,0.8209077967206238,0.6839568388190067,0.9566353661602472
2.3,0.8220091417604876,0.6857597854225661,0.9570663477111125
2.4,0.8231007021606687,0.6875522828729771,0.9574764918221778
2.5,0.8241824779211674,0.6893304545002794,0.9578802344890739
2.6,0.8252544690419839,0.6910761165015153,0.9582779089469915
2.7,0.8263166755231177,0.6927588947676651,0.9586698682526149
2.8,0.8273690973645693,0.6944324509123243,0.9590561124059442
2.9,0.8284117345663384,0.696096804696023,0.9594366414069797
3,0.8294445871284253,0.697748206194386,0.9598114552557209
3.1,0.8320778013541781,0.7019351017928301,0.9608925617862614
3.2,0.8346914463005661,0.7060944353614957,0.9619622380122137
3.3,0.8372855219675897,0.71023383687033,0.9630204839335779
3.4,0.8398600283552481,0.7143223510881795,0.9640672995503538
3.5,0.8424149654635418,0.7183896833527883,0.9651026848625417
3.6,0.8449503332924707,0.7224325128888043,0.9661266398701411
3.7,0.8474661318420347,0.7264478402540029,0.9671391645731524
3.8,0.8499623611122342,0.7304356654483843,0.9681402589715755
3.9,0.8524390211030686,0.73434652846015,0.9691299230654102
4,0.8548961118145382,0.738281938697142,0.9701883087482874
4.1,0.8573336332466431,0.7422341280066237,0.9711850244028795
4.2,0.859751585399383,0.7461126720033174,0.972151182704964
4.3,0.8621499682727585,0.7500461424224523,0.9731060616443461
4.4,0.8645287818667688,0.7539329035263478,0.9740663040312154
4.5,0.8668880261814145,0.7577130933250285,0.9749806658462833
4.6,0.8692277012166953,0.7614087506465756,0.975898036735254
4.7,0.8715478069726112,0.7650584733626308,0.9768645672345959
4.8,0.8738483434491625,0.7687244455707423,0.9778201011058878
4.9,0.8761293106463489,0.7723925180744962,0.9785910227131414
5,0.8783907085641705,0.7760521154556771,0.9794422145522514
5.1,0.8806325372026274,0.779646352682604,0.9803058853505695
5.2,0.8828547965617193,0.7831972573225463,0.9811896356478793
5.3,0.8850574866414466,0.7867281619679583,0.98209720303886
5.4,0.8872406074418089,0.7902332436284172,0.982988094222213
5.5,0.8894041589628064,0.7937767569779625,0.9838855793729235
5.6,0.8915481412044393,0.7972354631331443,0.9847337912786183
5.7,0.893672554166707,0.8005870987445639,0.9855949054021175
5.8,0.8957773978496104,0.8038533976291997,0.9864438412613132
5.9,0.8978626722531486,0.8071833514651812,0.9873880210531004
6,0.8999283773773221,0.8106128596175336,0.9882354058842524
6.1,0.901974513222131,0.8140155976300496,0.9890064201099485
6.2,0.9040010797875747,0.8173712550421062,0.9897223065289067
6.3,0.906008077073654,0.8206399988879449,0.9904993933294131
6.4,0.9079955050803683,0.8238812014864474,0.99127224522092106
6.5,0.9099633638077178,0.8270764884046837,0.9920288975307636
6.6,0.9119116532557026,0.8301713314841965,0.9927446611669128
6.7,0.9138403734243222,0.8334031944045595,0.9934491746052199
6.8,0.9157495243135775,0.8366627183507973,0.9941612073539565
6.9,0.9176391059234676,0.8398942106874541,0.9948442863944278
7,0.9195091182539932,0.8430534587371138,0.9955421030455125
7.1,0.921359561305154,0.8461072906009075,0.9962618841828215
7.2,0.9231904350769495,0.8491408819088142,0.9969725955008941
7.3,0.9250017395693808,0.8521379745380079,0.9976706159026894
7.4,0.926793474782447,0.8550620589478577,0.998348375691056
7.5,0.9285656407161484,0.8579628339697187,0.9990066474013988
7.6,0.930318237370485,0.8607957217421209,0.9995660355845024
7.7,0.9320512647454567,0.8635375749061238,1.0001540746925281
7.8,0.9337647228410639,0.8661465138203339,1.000742820018072
7.9,0.935458611657306,0.8687451400962112,1.0013526723852226
8,0.9371329311941835,0.8714522825639734,1.0019267356926425
8.1,0.9387876814516961,0.8739763363909108,1.002511795624883
8.2,0.9404228624298437,0.8765158208918797,1.002981431806547
8.3,0.942038474128627,0.8791766906296452,1.0034352424856
8.4,0.943634516548045,0.881789390022208,1.0040366588715464
8.5,0.9452109896880984,0.8843078337635321,1.0046484460808844
8.6,0.946767893548787,0.886918007898398,1.0051807009382687
8.7,0.9483052281301105,0.8894539146116055,1.0057325124106007
8.8,0.9498229934320697,0.8919624412177598,1.0062663828768703
8.9,0.9513211894546638,0.8944535772195437,1.0067938076264238
9,0.9527998161978931,0.8967570660327935,1.0073346939005963
9.1,0.9542588736617577,0.8992508028622547,1.0077577111773743
9.2,0.9556983618462573,0.9016219387682844,1.0081463574111338
9.3,0.9571182807513924,0.9039493463262496,1.0086036204931244
9.4,0.9585186303771625,0.9062731362137465,1.0091085035244565
9.5,0.9598994107235677,0.9083689277376142,1.0098190445040023
9.6,0.9612606217906081,0.910701700350266,1.010253980916257
9.7,0.9626022635782838,0.9129354527002455,1.010701167430364
9.8,0.9639243360865949,0.9152159823456594,1.0111760043687763
9.9,0.9652268393155408,0.9173736211542246,1.0117205524733754
10,0.9665097732651221,0.9194397704491838,1.012206430224468
10.1,0.9677731379353387,0.9215198738748374,1.0127234558214093
10.2,0.9690169333261901,0.9235828638357295,1.0131940509898638
10.3,0.9702411594376772,0.9256301577233326,1.013676227311502
10.4,0.971445816269799,0.9276475689736553,1.0142353028464808
10.5,0.9726309038225563,0.929555973510223,1.0146601121186014
10.6,0.9737964220959489,0.9311680895525432,1.0150048900157937
10.7,0.9749423710899763,0.9328888086221601,1.0154668373873166
10.8,0.9760687508046393,0.9345481690260778,1.015931560397913
10.9,0.9771755612399373,0.9362995215891109,1.01619314202168
11,0.9782628023958704,0.9380570314619239,1.0165747535231096
11.1,0.9793304742724389,0.9398539984087398,1.0169427354015852
11.2,0.9803785768696422,0.9415194018841732,1.017248836336544
11.3,0.9814071101874813,0.9431598342162997,1.0177811573071596
11.4,0.9824160742259551,0.9448476234503727,1.0182985931840771
11.5,0.9834054689850643,0.9466527138343404,1.0188209655175142
11.6,0.9843752944648088,0.9483035379324474,1.0192876865113765
11.7,0.9853255506651881,0.9499084541578147,1.0198270425373737
11.8,0.9862562375862031,0.9513353266561114,1.0202592870231357
11.9,0.9871673552278528,0.9528137668776068,1.0208988917435886
12,0.988058903590138,0.9542827908992683,1.021293427364113
12.1,0.9889308826730585,0.9557722873719487,1.0215547000010257
12.2,0.9897832924766138,0.9571849583067623,1.0218339075090783
12.3,0.9906161330008048,0.9585027221653619,1.0222315464655931
12.4,0.9914294042456306,0.9597434057641803,1.0225853359615285
12.5,0.9922231062110917,0.9609150079420251,1.0229200375096612
12.6,0.9929972388971879,0.962152995901411,1.0232093149009924
12.7,0.9937518023039194,0.9633570887201945,1.0234828066113733
12.8,0.9944867964312862,0.9644786460830669,1.0237403300841097
12.9,0.995202221279288,0.9655687275757137,1.0239756394435817
13,0.9958980768479251,0.9666464083979429,1.024289507674106
13.1,0.9965743631371974,0.9676631669942866,1.024657260274219
13.2,0.9972310801471047,0.9686701281864497,1.0249147465075832
13.3,0.9978682278776476,0.9695954483934333,1.0252767004239742
13.4,0.9984858063288253,0.9705290592853529,1.025480243026645
13.5,0.9990838155006383,0.9715349814364904,1.0257562578707118
13.6,0.9996622553930865,0.9725897027226722,1.0259002787850668
13.7,1.0002211260061697,0.9735652820457124,1.026100801051167
13.8,1.0007604273398887,0.9743993852876376,1.0263642942501978
13.9,1.0012801593942424,0.9751870375147705,1.026538411308096
14,1.0017803221692314,0.9760881288194787,1.026611546577204
14.1,1.0022609156648556,0.9767819579302675,1.0266577459584894
14.2,1.002721939881115,0.9774056009102033,1.026575623144343
14.3,1.0031633948180096,0.9780777922082293,1.0265416135569256
14.4,1.0035852804755394,0.9788345881837461,1.0266325476720506
14.5,1.0039875968537042,0.9794027180775873,1.026887381046957
14.6,1.0043703439525045,0.9800425009212146,1.0270880414039136
14.7,1.0047335217719398,0.9807645115848059,1.0272383048847722
14.8,1.0050771303120105,0.9815170909619347,1.027292646861834
14.9,1.005401169572716,0.9822177959317233,1.0273326138172212
15,1.0057056395540571,0.982600441234373,1.0273796204689458
15.1,1.0059905402560332,0.9831810175503031,1.0272824368974103
15.2,1.0062558716786445,0.9836692804546552,1.0271408355364406
15.3,1.006501633821891,0.9840706218812321,1.027132870451585
15.4,1.0067278266857729,0.9844734886862276,1.0271871674592516
15.5,1.0069344502702897,0.984727577301985,1.0273645127488944
15.6,1.0071215045754416,0.9852096551044275,1.0272565918724506
15.7,1.007288989601229,0.985586226612352,1.0272472580157825
15.8,1.0074369053476517,0.9860225212594484,1.0272317370764148
15.9,1.0075652518147091,0.9864855074467738,1.0272583075073958
16,1.007674029002402,0.986719192263845,1.0272157981477754
16.1,1.00776323691073,0.9869085774118989,1.0270937054022293
16.2,1.0078328755396933,0.9871993950244984,1.0270530436448504
16.3,1.0078829448892919,0.9873982911960509,1.0269447607251077
16.4,1.0079134449595255,0.9875916759862811,1.0269515340482482
16.5,1.0079243757503944,0.9877602873086896,1.0267891214128793
16.6,1.0079157372618983,0.9876680277911687,1.026569331765434
16.7,1.0078875294940373,0.987702180753921,1.0264779348925708
16.8,1.0078397524468121,0.9876378136140813,1.0264235723985098
16.9,1.0077724061202216,0.9876457053647345,1.0262144456879576
17,1.0076854905142665,0.9877069512957795,1.0261241298324149
17.1,1.0075790056289464,0.987748032536538,1.0259825773781586
17.2,1.0074529514642614,0.9877186194566998,1.025721719932505
17.3,1.0073073280202118,0.9876191561699281,1.0255436520709544
17.4,1.0071421352967975,0.9876090891678904,1.0253503764798104
17.5,1.0069573732940182,0.9876575844844404,1.0251998419995987
17.6,1.0067530420118742,0.9875310199085993,1.0249348724132086
17.7,1.0065291414503652,0.9874125943559944,1.024781215361198
17.8,1.0062856716094917,0.9872270073467262,1.024555166203291
17.9,1.0060226324892532,0.9869879831657138,1.0243347584383304
18,1.00574002408965,0.9867352556626803,1.0240137437301755
18.1,1.0054378464106821,0.9865150981730579,1.0236144848542064
18.2,1.005116099452349,0.9862284935752537,1.0232669368664575
18.3,1.0047747832146516,0.9858463432435234,1.022955268155964
18.4,1.004413897697589,0.9853904417449605,1.0225819535474272
18.5,1.0040334429011617,0.9849033901803939,1.0221803330469026
18.6,1.0036334188253695,0.9845948532768026,1.0218244821301234
18.7,1.0032138254702125,0.9841562182600021,1.021445046505757
18.8,1.002774662835691,0.9836351995264383,1.0209253247656027
18.9,1.0023159309218044,0.9830935358115641,1.0203602123254987
19,1.001837629728553,0.9825921385077612,1.019829452663863
19.1,1.001339759255937,0.9821259123381338,1.019368450971847
19.2,1.0008223195039558,0.981667904542227,1.0187865549707231
19.3,1.0002853104726104,0.9811437084976591,1.0183565724001067
19.4,0.9997287321618995,0.9806058927674888,1.0178238652489517
19.5,0.9991525845718243,0.98008369775334,1.017341162361644
19.6,0.9985568677023839,0.9795368164319503,1.016801405933581
19.7,0.997941581553579,0.9789835511074634,1.0162476946719
19.8,0.9973067261254094,0.9784097751409611,1.0156691989295459
19.9,0.9966523014178748,0.9777821724410973,1.015007149596687
20,0.9959783074309754,0.9771038926747275,1.0142614615349734
20.1,0.995284744164711,0.9763560973663492,1.0135550379035525
20.2,0.994571611619082,0.975610314463808,1.0128436457082006
20.3,0.9938389097940883,0.9748833103677572,1.0121710467303522
20.4,0.9930866386897297,0.9742001073680072,1.0113999675999217
20.5,0.9923147983060061,0.97330923759037,1.010726935330168
20.6,0.991523388642918,0.9723577307109289,1.0101291069529856
20.7,0.9907124097004649,0.9714921435142565,1.0094440999586887
20.8,0.9898818614786471,0.9706676899798143,1.0086562184631616
20.9,0.9890317439774645,0.9698788517879191,1.0077092043658955
21,0.988162057196917,0.969011849835499,1.006773886391451
21.1,0.9872728011370047,0.9681335470649599,1.0057531956797234
21.2,0.9863639757977276,0.9672689074316964,1.0048052829575873
21.3,0.9854355811790858,0.9663488711503183,1.0038763216147513
21.4,0.9844876172810791,0.9653840618042886,1.0028840025498567
21.5,0.9835200841037075,0.964411117262274,1.0018287362711549
21.6,0.9825329816469712,0.9633749512215054,1.000797084316711
21.7,0.9815263099108702,0.9623037852150709,0.999830676750723
21.8,0.9805000688954042,0.9612562091226573,0.9988629561927098
21.9,0.9794542586005736,0.9603320312246774,0.9978070540790365
22,0.97838887902637794,0.9592557265731969,0.9967972459769798
22.1,0.9773039301728176,0.9581545307194523,0.995674160425879
22.2,0.9761994120398924,0.9570742644930372,0.9946140586865767
22.3,0.9750753246276026,0.9559405960941164,0.9934581073208484
22.4,0.9739316679359478,0.9548004924869318,0.9923165815266237
22.5,0.9727684419649281,0.9536812068538647,0.9911161069438638
22.6,0.9715856467145438,0.9525536035756614,0.9899451419911737
22.7,0.9703832821847946,0.9514122009282222,0.9887966862171211
22.8,0.9691613483756808,0.9502490436815274,0.9876847778802127
22.9,0.967919845287202,0.9490824071857042,0.9864455567004053
23,0.9666587729193582,0.9479561310648174,0.9853838860638273
23.1,0.9653781312721499,0.9467117527170673,0.9843127779065479
23.2,0.9640779203455766,0.9453260461027577,0.9830371046064437
23.3,0.9627581401396388,0.9440452950883076,0.9815460665101773
23.4,0.9614187906543359,0.9426253018347875,0.980030514006782
23.5,0.9600598718896682,0.9411997380571773,0.97869970645148
23.6,0.9586813838456358,0.9398963360937109,0.9772169858869073
23.7,0.9572833265222385,0.9385189286113622,0.9758396101521892
23.8,0.9558656999194766,0.9371212948944252,0.9745138933412315
23.9,0.9544285040373497,0.9356343468108822,0.9730019991584169
24,0.9529717388758578,0.9341077501928481,0.9716534246078009
24.1,0.9514954044350015,0.9325389948683355,0.9702837471064957
24.2,0.9499995007147801,0.9309515271785277,0.9688345057727887
24.3,0.9484840277151942,0.9293064075816257,0.9672544703489028
24.4,0.9469489854362432,0.9277126232336648,0.9656879728345075
24.5,0.9453943738779276,0.9260773350531839,0.9641649372838876
24.6,0.943820193040247,0.9244439311872655,0.9626508793188846
24.7,0.9422264429232017,0.9227727489809718,0.9610927623083558
24.8,0.9406131235267917,0.9210951571946112,0.9593492282546108
24.9,0.9389802348510167,0.9194030921671832,0.9576797673400279
25,0.937327776895877,0.9175430302778109,0.9559556359454788
25.1,0.9356557496613724,0.9159051354014305,0.9543966189747803
25.2,0.9339641531475029,0.9141819655997423,0.952663807861636
25.3,0.9322529873542691,0.9123704886448772,0.951067865596983
25.4,0.93052225228167,0.910419464186063,0.9492907388551395
25.5,0.9287719479297062,0.9086449322660365,0.9478127137800726
25.6,0.9270020742983776,0.9066614749588593,0.9461308428116117
25.7,0.9252126313876842,0.9047159464591925,0.9444022584263803
25.8,0.9234036191976261,0.9027330778608992,0.9426389502464567
25.9,0.921575037728203,0.900799684924223,0.9409648181054944
26,0.9197268869794153,0.8988675350225325,0.9393728529956638
26.1,0.9178591669512626,0.8969120168980661,0.9376694478370207
26.2,0.9159718776437451,0.8948674479251268,0.936087631606719
26.3,0.9140650190568631,0.8929302448541072,0.9343955849683543
26.4,0.912138591190616,0.890894311409645,0.9326064721180708
26.5,0.9101925940450042,0.8886576884877728,0.9307740568316838
26.6,0.9082270276200275,0.8864378305803184,0.9291159443936019
26.7,0.906241891915686,0.8842105210895631,0.9273248862632237
26.8,0.9042371869319799,0.8819662331476192,0.9254949307439295
26.9,0.9022129126689088,0.8796896586581406,0.9235234124719947
27,0.900169069126473,0.8775336073739731,0.9216162128269343
27.1,0.8981056563046723,0.8752720036680504,0.9196954594892072
27.2,0.8960226742035067,0.8729858616810473,0.9179893103075185
27.3,0.8939201228229765,0.8706750970629837,0.9161329869179666
27.4,0.8917980021630814,0.8684550098730162,0.9139744184316383
27.5,0.8896563122238215,0.8661174149824498,0.9119117385734552
27.6,0.8874950530051967,0.863735244943903,0.9100846567723397
27.7,0.8853142245072072,0.8613261318883202,0.9082362544608809
27.8,0.8831138267298531,0.8589384389702701,0.9064219104304798
27.9,0.8808938596731338,0.8564315692487376,0.904560250798941
28,0.87865432333705,0.853932188048149,0.9027417292261776
28.1,0.876395217721601,0.851609932238379,0.9009962392028882
28.2,0.8741165428267876,0.8490423690168276,0.8992057637521305
28.3,0.8718182986526093,0.8463183930954694,0.8973902697551801
28.4,0.8695004851990662,0.8435826758601681,0.8954829217391058
28.5,0.8671631024661581,0.8408624704933054,0.8934718874737855
28.6,0.8648061504538853,0.8382334545023509,0.8914932703550309
28.7,0.8624296291622477,0.8355617317612385,0.8895409897404462
28.8,0.8600335385912454,0.8329025353324606,0.8875887339589648
28.9,0.8576178787408784,0.830110718914851,0.8856125081715265
29,0.8551826496111462,0.8272950322931796,0.8836384824851087
29.1,0.8527278512020494,0.8245136808224598,0.8816668093754125
29.2,0.8502534835135878,0.8214266017601842,0.8795119523673134
29.3,0.8477595465457615,0.8185883089407886,0.8772075547802879
29.4,0.8452460402985702,0.8154235118353677,0.8749224601785078
29.5,0.8427129647720142,0.812271422802956,0.8727788169247992
29.6,0.8401603199660932,0.809253735662848,0.8705560316842887
29.7,0.8375881058808077,0.8061707925341711,0.8684332216452136
29.8,0.8349963225161573,0.8030139240893044,0.8663081737658844
29.9,0.83238496987214206,0.7998937858790159,0.864277121270673
30,0.829754047948762,0.7967820780948286,0.8622610275231688
30.1,0.827103556746017,0.7936163535229103,0.8602296949267862
30.2,0.8244334962639073,0.7904250638540959,0.8581206754144877
30.3,0.821743866502433,0.7871320423059667,0.8559157207292942
30.4,0.8190346674615936,0.7837765127425798,0.8537200574941927
30.5,0.8163058991413894,0.7805063471395406,0.8515879114847548
30.6,0.8135575615418206,0.7771851030730641,0.8494034888951957
30.7,0.8107896546628868,0.7738029632401047,0.8471748566562232
30.8,0.8080021785045884,0.7704382715492301,0.8448846576765763
30.9,0.8051951330669251,0.7671769501291696,0.8426952233285581
31,0.8023685183498969,0.7636783758868506,0.8404546621771519
31.1,0.799522334353504,0.7603493575072446,0.8383429844046624
31.2,0.7966565810777462,0.7569138216565623,0.8360319392921842
31.3,0.7937712585226238,0.7533827123635661,0.8337337266755236
31.4,0.7908663666881364,0.7497047892774829,0.8312054511683367
31.5,0.7879419055742841,0.7461960924410502,0.8290531289860862
31.6,0.7849978751810671,0.742551954660163,0.8267616352263029
31.7,0.7820342755084853,0.7389300075242824,0.824454822859719
31.8,0.7790511065565389,0.7352136482103186,0.8222023402728157
31.9,0.7760483683252275,0.7315382443435128,0.820039369188742
32,0.7730260608145512,0.7278934748925279,0.8179663223252589
32.1,0.7699841840245103,0.7242691510115082,0.8156939496596892
32.2,0.7669227379551042,0.7204548467046494,0.8135245472312
32.3,0.7638417226063339,0.7166416110588325,0.8112536393981664
32.4,0.7607411379781984,0.7128423233297428,0.8089354554647096
32.5,0.7576209840706981,0.7089356531333331,0.806612985179898
32.6,0.754481260883833,0.7050406434682874,0.8044005147089608
