temp,mean,conf_lower,conf_upper
0,0.9368335072671481,0.8290178362946519,1.035277390036716
0.1,0.9375064545288647,0.8301340802030139,1.035646418771055
0.2,0.9381716771454733,0.8309692216857812,1.0360524798059516
0.3,0.9388291751169735,0.8319800327881567,1.0364483320529572
0.4,0.9394789484433657,0.8329938900515198,1.0367461295147762
0.5,0.9401209971246494,0.833930642235191,1.0370186927054188
0.6,0.9407553211608248,0.8349732002818245,1.0373620487302024
0.7,0.9413819205518923,0.8359443760676819,1.037707640749039
0.8,0.9420007952978513,0.8367902418358761,1.038046811212317
0.9,0.9426119453987021,0.8376140793974338,1.0383795311513042
1,0.9432153708544446,0.8385045701940731,1.038701312014116
1.1,0.9438110716650789,0.8393512528410896,1.0389566496035034
1.2,0.9443990478306052,0.8403440272522593,1.0392454016996637
1.3,0.9449792993510229,0.8413275391027667,1.0396290705345264
1.4,0.9455518262263327,0.8422554608046702,1.0399425812084755
1.5,0.9461166284565339,0.8431039812306783,1.0402350596326886
1.6,0.946673706041627,0.8440019817994688,1.0404381617852834
1.7,0.947223058981612,0.8448229497765827,1.0405687829699877
1.8,0.9477646872764887,0.8456246537378269,1.0409226425409537
1.9,0.9482985909262571,0.8464351153536077,1.041266764546767
2,0.9488247699309174,0.847283435795666,1.0416028799669794
2.1,0.9493432242904691,0.8480033682245348,1.0418010730509615
2.2,0.9498539540049129,0.8487850277709224,1.0421083443542762
2.3,0.9503569590742484,0.8496103297581478,1.0423537988566494
2.4,0.9508522394984755,0.8503393974424803,1.0426987067125646
2.5,0.9513397952775946,0.8510524513780419,1.043026636082843
2.6,0.9518196264116052,0.851723678965929,1.0433693013528338
2.7,0.9522917329005078,0.8523881080302961,1.043701046703509
2.8,0.952756114744302,0.8530534474064401,1.0440177535170898
2.9,0.9532127719429881,0.8537748065468286,1.0443924794534043
3,0.9536617044965658,0.8543440852534543,1.044629901103137
3.1,0.9541029124050353,0.854928160263142,1.044930770775433
3.2,0.9545363956683968,0.8556522743237872,1.045129241389905
3.3,0.9549621542866498,0.8563095248072985,1.0454708502352577
3.4,0.9553801882597945,0.8569814135930789,1.0457766897796132
3.5,0.9557904975878311,0.8575604239356335,1.0460956883862935
3.6,0.9561930822707594,0.8581541834043552,1.046467531240559
3.7,0.9565879423085795,0.858579203172751,1.0467521378137004
3.8,0.9569750777012913,0.8589598403369247,1.0470248694229385
3.9,0.9573544884488949,0.859438292476044,1.0472884898561827
4,0.9577261745513903,0.8598662943016766,1.0476026483113812
4.1,0.9580901360087775,0.8601573870812753,1.047842304417522
4.2,0.9584463728210564,0.8604596277106079,1.0480488538256734
4.3,0.9587948849882268,0.8608227739822888,1.0482615493444492
4.4,0.9591356725102895,0.86119663583546,1.0485236527070925
4.5,0.9594687353872435,0.8616060396318939,1.0488600343257306
4.6,0.9597940736190893,0.8620168508453521,1.0491690766152562
4.7,0.9601116872058273,0.8622660055343018,1.0494939595687778
4.8,0.9604215761474566,0.862719795446676,1.049805879638473
4.9,0.9607237404439779,0.8629905271771554,1.0500967864332453
5,0.9610181800953908,0.8633764417353444,1.0502871444911581
5.1,0.9613048951016954,0.8636201196397716,1.0505963109513492
5.2,0.961583885462892,0.8639343456185747,1.0509615100583947
5.3,0.9618551511789801,0.8642426471855146,1.0512356424191447
5.4,0.96211869224996,0.8644805140541727,1.0515007469012938
5.5,0.962374508675832,0.86476097373093,1.051750247729827
5.6,0.9626226004565954,0.8650610490643312,1.052073197810492
5.7,0.9628629675922507,0.8653587367205137,1.0524246154833696
5.8,0.9630956100827976,0.8655634140767359,1.0527267506451068
5.9,0.9633205279282364,0.8658188438366078,1.0529264511134528
6,0.9635377211285672,0.8660050727875152,1.0531108308318753
6.1,0.9637471896837895,0.8661107447826402,1.0532826621347722
6.2,0.9639489335939035,0.8661804794788597,1.053537247613702
6.3,0.9641429528589094,0.8663503371372638,1.0538315233515463
6.4,0.964329247478807,0.8665143213821686,1.054151256712783
6.5,0.9645078174535964,0.8666794334814559,1.0544990836374852
6.6,0.9646786627832773,0.8668161619407817,1.0547121978314489
6.7,0.9648417834678502,0.8669259106998298,1.0549299977542168
6.8,0.9649971795073149,0.8670763263859578,1.0552072489119855
6.9,0.9651448509016711,0.8672240292996803,1.055476206683332
7,0.9652847976509196,0.8672616014523348,1.0556790177229978
7.1,0.9654170197550593,0.8673004233002352,1.0559035570519004
7.2,0.9655415172140911,0.8673659636257859,1.056090373114372
7.3,0.9656582900280144,0.867475112030471,1.0561710595549012
7.4,0.9657673381968295,0.8676031253060155,1.0563749197413037
7.5,0.9658686617205365,0.8676119945547326,1.0564698712547234
7.6,0.9659622605991351,0.8676156433633955,1.056520185641523
7.7,0.9660481348326257,0.867614071732004,1.056763694700797
7.8,0.9661262844210079,0.8676072796605586,1.056903141452395
7.9,0.9661967093642818,0.8675792894091251,1.0570474068286413
8,0.9662594096624477,0.8675047515068004,1.057133130147888
8.1,0.9663143853155052,0.8674588688599706,1.057208934624207
8.2,0.9663616363234544,0.867455886640235,1.057352869615186
8.3,0.9664011626862954,0.8674167519191979,1.0575185034998258
8.4,0.9664329644040281,0.8673600118040409,1.057672541463245
8.5,0.9664570414766527,0.8672970683449235,1.0578162283964203
8.6,0.966473393904169,0.8672279733635989,1.0577992234166385
8.7,0.966482021686577,0.8671103399484242,1.0579071098661608
8.8,0.9664829248238769,0.8669784567583791,1.0579567484291474
8.9,0.9664761033160685,0.8668390830061641,1.0579716681413718
9,0.9664615571631519,0.8666959063173221,1.0580028395727528
9.1,0.9664392863651268,0.8665850604019953,1.0580132916946416
9.2,0.9664092909219937,0.86658563623858,1.058051101696543
9.3,0.9663715708337524,0.8664874624010173,1.0580753421354965
9.4,0.9663261261004026,0.8662933753878317,1.0580484178455638
9.5,0.966272956721945,0.8661693992418991,1.0580610921923124
9.6,0.9662120626983786,0.8660889423704365,1.0580635603976818
9.7,0.9661434440297043,0.8660053814658522,1.0580355072175882
9.8,0.9660671007159218,0.8659211545229162,1.057982344870596
9.9,0.9659830327570309,0.8658346179127148,1.0579881551471484
10,0.965891240153032,0.8657447096328559,1.0579700220385786
10.1,0.9657917229039246,0.8656508603071738,1.0578853406055946
10.2,0.9656844810097092,0.865555945165397,1.0577808985871884
10.3,0.9655695144703851,0.8654581420703014,1.057665708853634
10.4,0.9654468232859532,0.8653358225791105,1.0575388682286393
10.5,0.9653164074564129,0.865197857893385,1.0573996501945353
10.6,0.9651782669817643,0.8650558207982678,1.0572467572118533
10.7,0.9650324018620076,0.8649696893446633,1.057087046288962
10.8,0.9648788120971425,0.8647763690359624,1.0569664817295743
10.9,0.9647174976871693,0.8645873746413768,1.0568342101373756
11,0.964548458632088,0.8643718515899322,1.056667482547415
11.1,0.9658943531555213,0.8665987666149443,1.057204569153782
11.2,0.9672247983887383,0.8687329763014887,1.0578070053360076
11.3,0.9685397943317389,0.8708789838204496,1.058363307859091
11.4,0.969839340984523,0.873086404256145,1.05878103854462
11.5,0.9711234383470906,0.8752365480316856,1.059178334302545
11.6,0.9723920864194417,0.8774087901471495,1.0596574696069703
11.7,0.9736452852015762,0.8795335472318273,1.0600598153628893
11.8,0.9748830346934944,0.8815790944526749,1.0605270097153072
11.9,0.976105334895196,0.8836061660141612,1.0609397828242653
12,0.9773121858066812,0.8856181873062884,1.061350294924566
12.1,0.97850358742795,0.8876073851705544,1.0617325487855993
12.2,0.9796795397590022,0.8895321875793236,1.0620967387966527
12.3,0.9808400427998378,0.8914617981519286,1.0624392924712098
12.4,0.9819850965504571,0.8934086129770357,1.062809532512367
12.5,0.9831147010108598,0.8952857637249338,1.0632074365087747
12.6,0.9842288561810462,0.897144538470158,1.0634039787877456
12.7,0.985327562061016,0.8989926834243294,1.0638029109264924
12.8,0.9864108186507692,0.9008446534063383,1.0641195068665414
12.9,0.9874786259503061,0.902696276707583,1.0643907194948325
13,0.9885309839596266,0.9045052147643045,1.064638687322779
13.1,0.9895678926787302,0.9063048258975032,1.064857205902309
13.2,0.9905893521076179,0.9081253615526913,1.0651237227478094
13.3,0.9915953622462887,0.9099695753262333,1.0654402554450115
13.4,0.9925859230947429,0.9117945649875896,1.0657293729551456
13.5,0.9935610346529811,0.9135945003150353,1.0659951433554098
13.6,0.9945206969210025,0.9154013431254953,1.0662558356400136
13.7,0.9954649098988075,0.9171642674465126,1.0665085960555376
13.8,0.9963936735863961,0.9188633017212552,1.0667139076687457
13.9,0.997306987983768,0.9205384870717301,1.0669234488634598
14,0.9982048530909238,0.9221431741835099,1.0671130889761606
14.1,0.9990872689078627,0.9237676492434312,1.0672915639667586
14.2,0.9999542354345852,0.9253484676421448,1.0674512818119304
14.3,1.0008057526710912,0.9269960638358292,1.0676011234401641
14.4,1.001641820617381,0.9286559202264357,1.0677341646207101
14.5,1.002462439273454,0.9302572357221428,1.0678636077520385
14.6,1.0032676086393106,0.9318439781238814,1.0680727441265607
14.7,1.004057328714951,0.9332913756259327,1.0680895471554193
14.8,1.0048315995003747,0.9347152282183124,1.068150479243831
14.9,1.0055904209955817,0.9362115150414786,1.0682456483396885
15,1.0063337932005725,0.9377417755765178,1.0682092925414362
15.1,1.0070617161153468,0.9392855536117106,1.0682282378698027
15.2,1.0077741897399046,0.940807169620463,1.0682091472073232
15.3,1.008471214074246,0.9422879770248115,1.0682163829172486
15.4,1.0091527891183707,0.9437284792866503,1.0683228861043284
15.5,1.0098189148722791,0.9451531661464985,1.068417279159954
15.6,1.0104695913359707,0.9465612200639534,1.0685006478859789
15.7,1.0111048185094462,0.9479549393511006,1.0685030167740348
15.8,1.0117245963927053,0.9492624829102646,1.0683534126789884
15.9,1.0123289249857477,0.9505721106712023,1.068424556665238
16,1.0129178042885734,0.9518746743246677,1.0684484542560249
16.1,1.0134912343011828,0.9530041765721788,1.0684813364027435
16.2,1.0140492150235758,0.95417803235989,1.0684339454521599
16.3,1.0145917464557526,0.955342949741578,1.068344027511968
16.4,1.0151188285977124,0.9565710530241885,1.0682326359651024
16.5,1.015630461449456,0.9576979801315848,1.0681876905147942
16.6,1.0161266450109827,0.9588772123060554,1.068130436819299
16.7,1.0166073792822932,0.96008884820737594,1.0680514351042931
16.8,1.0170726642633876,0.9611343046357386,1.0678442429918351
16.9,1.0175224999542651,0.9623245731620536,1.0676330038781736
17,1.0179568863549262,0.9633637409318583,1.0674742939929067
17.1,1.0183758234653706,0.9644383197277493,1.0673933424773323
17.2,1.018779311285599,0.9655045059137541,1.0672822274567408
17.3,1.0191673498156106,0.9665393289596287,1.0670955331464294
17.4,1.0195399390554059,0.9674428223495386,1.0671264555780202
17.5,1.0198970790049844,0.9683131080233407,1.0672110264210535
17.6,1.0202387696643467,0.9692059813378149,1.0671797214273804
17.7,1.0205650110334925,0.9700868329934089,1.0670512135490773
17.8,1.0208758031124217,0.9709849756434397,1.0669031905132904
17.9,1.0211711459011346,0.9718162386345341,1.0667369058552771
18,1.0214510393996308,0.9726626023676632,1.0664813864831522
18.1,1.0217154836079105,0.9734192991073393,1.0661928414714392
18.2,1.0219644785259738,0.9741489141926538,1.0660922273000857
18.3,1.0221980241538207,0.9748789919134527,1.0658606384235982
18.4,1.0224161204914513,0.9756047522187018,1.0655995856332332
18.5,1.022618767538865,0.9762221170981872,1.0653864671644624
18.6,1.0228059652960622,0.9768870568633604,1.0652053648818318
18.7,1.0229777137630434,0.9776054221418586,1.0649670442151784
18.8,1.0231340129398079,0.9782464004471063,1.06469706447366
18.9,1.0232748628263557,0.978733697596845,1.0644405179286627
19,1.0234002634226873,0.9793145072691776,1.064115623655935
19.1,1.0235102147288022,0.9798883256823221,1.063838949219552
19.2,1.0236047167447007,0.9803072893847173,1.0635829491117574
19.3,1.0236837694703826,0.9806597175882024,1.0633380105645767
19.4,1.0237473729058484,0.9809903387284207,1.0629250632609104
19.5,1.0237955270510974,0.9815735036483096,1.0626382048794083
19.6,1.0238282319061298,0.9819233684828603,1.062540887906615
19.7,1.023845487470946,0.9824228032679967,1.0623290847515234
19.8,1.0238472937455456,0.9828543479543648,1.0621118456988272
19.9,1.0238336507299288,0.9831031601380718,1.0618676268651597
20,1.0238045584240956,0.9832791151597494,1.0616274852805143
20.1,1.0237600168280456,0.9834119735484456,1.0614397461059915
20.2,1.0237000259417794,0.9836955196526438,1.0611540358777325
20.3,1.0236245857652966,0.9838488005228931,1.060618387910157
20.4,1.0235336962985975,0.9839802636101711,1.0602305547004236
20.5,1.0234273575416817,0.9841099392841968,1.0599478139811018
20.6,1.0233055694945492,0.9841753372893621,1.059586762487784
20.7,1.0231683321572007,0.9842415749032536,1.0592936658354208
20.8,1.0230156455296355,0.9842241754613883,1.0590470906347027
20.9,1.0228475096118539,0.9842384204075199,1.0586683530519596
21,1.0226639244038558,0.9841911713603673,1.058485470971553
21.1,1.022464889905641,0.9842882916805223,1.0580926380954652
21.2,1.0222504061172102,0.9843250463753447,1.0576962807229364
21.3,1.0220204730385625,0.9843246563028252,1.0574425068379676
21.4,1.0217750906696983,0.9842216365565108,1.057167538443493
21.5,1.0215142590106177,0.9840900888697947,1.0567536380694746
21.6,1.0212379780613208,0.9838616733115382,1.0562932791832138
21.7,1.0209462478218072,0.9835427031166504,1.055923459496717
21.8,1.0206390682920772,0.9831879076733265,1.0554860373764532
21.9,1.0203164394721307,0.9828723937963295,1.0552310730483974
22,1.019978361361968,0.9826535783419592,1.0549790407275275
22.1,1.0196248339615883,0.982418267201967,1.0547388738159924
22.2,1.0192558572709924,0.9818863866021533,1.0544785383421726
22.3,1.0188714312901799,0.981436960196903,1.0542122446732192
22.4,1.018471556019151,0.9810993314656726,1.0538344071941543
22.5,1.0180562314579058,0.9806508499588052,1.0534915446185784
22.6,1.0176254576064436,0.9801865454096147,1.0533048480710243
22.7,1.0171792344647657,0.9796304254813699,1.0529558622057698
22.8,1.0167175620328708,0.9789287853080271,1.0527004100409618
22.9,1.0162404403107594,0.9781936802507718,1.0524269809367468
23,1.0157478692984316,0.9775184194350672,1.0520719331367108
23.1,1.0152398489958874,0.9767960502818113,1.0516454969977262
23.2,1.0147163794031269,0.9762084989916812,1.0511670440704775
23.3,1.0141774605201495,0.975669763603665,1.0508452663340255
23.4,1.0136230923469558,0.9749115698069528,1.050506136157677
23.5,1.0130532748835457,0.9741660623351966,1.0501256888981394
23.6,1.0124680081299189,0.9734019064829522,1.0496218469814864
23.7,1.0118672920860758,0.972578728201527,1.0491554745588354
23.8,1.0112511267520163,0.9717282107714282,1.0488430942128228
23.9,1.0106195121277401,0.9709239426306098,1.0484717311792162
24,1.0099724482132475,0.9701545692516937,1.0480452615647544
24.1,1.0093099350085384,0.9692496103582973,1.0474757387831628
24.2,1.0086319725136128,0.968395422438773,1.0470101633900037
24.3,1.007938560728471,0.9675739781575057,1.0464776403650036
24.4,1.0072296996531123,0.9666466562678409,1.04605384386016
24.5,1.0065053892875373,0.965708739403913,1.045629269148519
24.6,1.0057656296317457,0.9647408574444312,1.0452113297768977
24.7,1.0050104206857378,0.9637555406717095,1.04477445073466
24.8,1.0042397624495134,0.9627609707107507,1.0443176907725982
24.9,1.0034536549230726,0.961812114889077,1.0439141075505411
25,1.0026520981064153,0.960700548708366,1.0432464446610858
25.1,1.0018350919995411,0.9595931489054421,1.0427251748366322
25.2,1.001002636602451,0.9586151582282011,1.0421424652694342
25.3,1.000154731915144,0.9575033795683467,1.0416407998298656
25.4,0.9992913779376207,0.9563904671300367,1.0410415026136914
25.5,0.9984125746698809,0.955148657349608,1.0404498638595547
25.6,0.9975183221119246,0.9538567540124132,1.039945754381412
25.7,0.9966086202637519,0.9524824377444404,1.0393781754969336
25.8,0.9956834691253625,0.9510649272332752,1.0387935899559033
25.9,0.9947428686967568,0.9496774361320501,1.0381947615462304
26,0.9937868189779346,0.9481627990231449,1.0376413394658632
26.1,0.9928153199688958,0.9465886343751257,1.0370082833437897
26.2,0.9918283716696408,0.9450291907287987,1.0363369888310783
26.3,0.990825974080169,0.9435196370660145,1.0356667087363427
26.4,0.9898081272004811,0.9420097833259149,1.0350407047928258
26.5,0.9887748310305764,0.9405298960793806,1.0344834567294359
26.6,0.987726085570455,0.93904248006986335,1.033893300758985
26.7,0.9866618908201177,0.9373824798657984,1.0333138322109594
26.8,0.9855822467795636,0.9359161872151189,1.0328312157535664
26.9,0.9844871534487931,0.9342559087125057,1.0324047743626368
27,0.9833766108278061,0.9326998853675629,1.0318767951210184
27.1,0.9822506189166025,0.9309906976988193,1.0314616629333537
27.2,0.9811091777151826,0.9293329350626218,1.0310995096683646
27.3,0.979952287223546,0.9276515954133704,1.0305012051364235
27.4,0.9787799474416929,0.9258468132288887,1.029793291964175
27.5,0.9775921583696238,0.9240777302796503,1.0291748033361114
27.6,0.9763889200073377,0.9223310495791718,1.0286824314284684
27.7,0.9751702323548352,0.9204720719701218,1.0282147244912756
27.8,0.9739360954121165,0.9185081507440074,1.02769393242118
27.9,0.972686509179181,0.916583048604438,1.027066903035931
28,0.9714214736560293,0.9145768123387995,1.0263511927013433
28.1,0.9701409888426609,0.9124780858002741,1.0256016868881137
28.2,0.9688450547390761,0.9103314886457389,1.0249263537649442
28.3,0.9675336713452749,0.908273081136284,1.0242859159136573
28.4,0.9662068386612571,0.906196866896225,1.023666140698731
28.5,0.9648645566870229,0.9041098471934441,1.0230696640602384
28.6,0.963506825422572,0.9019825105335972,1.022333679703975
28.7,0.962133644867905,0.8998162608563682,1.0215975860894844
28.8,0.9607450150230212,0.8976787447891146,1.0209121924912745
28.9,0.959340935887921,0.8955265826323511,1.0201979359836877
29,0.9579214074626046,0.8932523563974151,1.0194122884420933
29.1,0.9564864297470712,0.8909952321778283,1.0186431248874088
29.2,0.9550360027413216,0.8889113436606684,1.0178309937639667
29.3,0.9535701264453555,0.8868608626767815,1.0170162067918727
29.4,0.9520888008591728,0.8848190460178926,1.0162595035443616
29.5,0.950592025982774,0.8826478847863148,1.0154991441921886
29.6,0.9490798018161584,0.8804670751801575,1.014683727852153
29.7,0.9475521283593262,0.8782709235818364,1.013939423203515
29.8,0.9460090056122779,0.8760593982630491,1.013028966171883
29.9,0.9444504335750128,0.8738165214838611,1.0121182099396282
30,0.9428764122475315,0.8715013188269176,1.0112465522006924
30.1,0.9412869416298334,0.8690451417658935,1.0103961608446208
30.2,0.9396820217219191,0.8666200645046709,1.0096097741818184
30.3,0.9380616525237881,0.8641470341148542,1.0088411209882915
30.4,0.9364258340354406,0.8616445977036244,1.0080569064491582
30.5,0.9347745662568768,0.8591241573211419,1.0072583754553952
30.6,0.9331078491880963,0.8565857647891592,1.0062951871242893
30.7,0.9314256828290997,0.8539870331960335,1.005452924798102
30.8,0.9297280671798863,0.8513622512007449,1.0045484491609935
30.9,0.9280150022404565,0.8487181780159934,1.0036052892487368
31,0.9262864880108101,0.8460585012673222,1.0025673861963582
31.1,0.9245425244909473,0.8434193546648734,1.001448047435039
31.2,0.9227831116808682,0.8408798291870432,1.0003508896412763
31.3,0.9210082495805725,0.8382463529349782,0.9992349853721101
31.4,0.9192179381900603,0.8355816686760815,0.9980627394616022
31.5,0.9174121775093318,0.8329760596705171,0.9969680113222046
31.6,0.9155909675383862,0.8304029343255022,0.9959771024835928
31.7,0.9137543082772248,0.8278156693334444,0.9949516402762114
31.8,0.9119021997258467,0.8252167026891148,0.993908349970221
31.9,0.910034641884252,0.8226043907635987,0.99305543913715
32,0.908151634752441,0.8199776715545045,0.9920802579909089
32.1,0.9062531783304133,0.8173359756856664,0.9909318708167465
32.2,0.9043392726181694,0.8146821783868128,0.9897520898601038
32.3,0.9024099176157088,0.81201445752072,0.9885510820335193
32.4,0.9004651133230317,0.8093111846446108,0.9873756303688307
32.5,0.8985048597401384,0.8065812309600465,0.9862043390769719
32.6,0.8965291568670282,0.8038361692521697,0.9850153201835273
