temp,mean,conf_lower,conf_upper
0,2.412955792484305,2.1659922981234754,2.6567212705089807
0.1,2.4149123695801173,2.169210729370314,2.6574888339447407
0.2,2.416848956225469,2.1724024124318193,2.6582757861290123
0.3,2.4187655524203606,2.1755218698418064,2.6590487974988983
0.4,2.4206621581647907,2.1786124200161523,2.6598078680544
0.5,2.4225387734587613,2.1816778800616916,2.6605529977955173
0.6,2.4243953983022717,2.184725906977275,2.6612841867222494
0.7,2.426232032695321,2.187883256506562,2.662001434834597
0.8,2.42804867663791,2.191005131671075,2.6627047421325596
0.9,2.4298453301300387,2.19400998952079,2.6633941086161377
1,2.431621993171707,2.1969880898898664,2.6640133430861828
1.1,2.433378665762915,2.1999394327783035,2.6645384080642245
1.2,2.435115347903662,2.2027637380027034,2.6650507851616982
1.3,2.4368320395939493,2.2055153443239113,2.6655504743786036
1.4,2.438528740833776,2.2082416639428946,2.666037475714942
1.5,2.440205451623142,2.2109426968596524,2.66650105778162
1.6,2.4418621719620477,2.213659850022019,2.6669515585307924
1.7,2.443498901850493,2.2164032036552515,2.667389465035395
1.8,2.445115641288478,2.2191249423711183,2.667814777295428
1.9,2.4467123902760024,2.221827801433096,2.6682274953108904
2,2.448289148813066,2.224613949257573,2.6687469551486176
2.1,2.4498459168996694,2.2273875192371486,2.669150693464905
2.2,2.4513826945358126,2.2301331199744734,2.669468734752864
2.3,2.4528994817214955,2.2328507514695457,2.670005752208859
2.4,2.454396278456718,2.2355404137223664,2.670520038466602
2.5,2.455873084741479,2.238202106732935,2.67101058065043
2.6,2.4573299005757807,2.2408358305012523,2.671272885713936
2.7,2.458766725959622,2.2434364465901737,2.6714513396329593
2.8,2.460183560893003,2.245845295995638,2.6716077537045657
2.9,2.4615804053759227,2.248228104116456,2.671838036530031
3,2.462957259408382,2.250586195958932,2.6721550564162198
3.1,2.4668704136000064,2.256876710723581,2.67361108217201
3.2,2.47074358689071,2.2631058050514863,2.675095037620878
3.3,2.4745767792804925,2.269486034463479,2.6763286390499017
3.4,2.478369990769354,2.27565022829193,2.677685583037219
3.5,2.482123221357295,2.2817162622463565,2.679110993455656
3.6,2.4858364710443146,2.2878274908787466,2.6805155383240553
3.7,2.489509739830414,2.293888928298432,2.6818905240664765
3.8,2.4931430277155924,2.2999009473329735,2.683158695212799
3.9,2.4967363346998495,2.3059597382236507,2.684336640187338
4,2.500289660783186,2.311992813619243,2.685488610259194
4.1,2.503803005965602,2.3179716388771894,2.6866146054283675
4.2,2.507276370247096,2.3238995908835793,2.6877146256948583
4.3,2.510709753627671,2.3297303210836176,2.688788671058666
4.4,2.514103156107323,2.33525667854948,2.6898501418663425
4.5,2.5174565776860556,2.3406889311493204,2.6909850002591584
4.6,2.5207700183638666,2.3463214066670774,2.6920835987009757
4.7,2.524043478140757,2.351928985139917,2.6931494271789553
4.8,2.5272769570167277,2.3572542561514473,2.6941881888320798
4.9,2.530470454991776,2.362476024476381,2.695343337117472
5,2.5336239720659037,2.36763809440481,2.696486163817779
5.1,2.536737508239111,2.3727486010112715,2.697414830575468
5.2,2.5398110635113973,2.3778075442957647,2.6982839779499277
5.3,2.5428446378827623,2.3828200653009004,2.6991736711208585
5.4,2.5458382313532075,2.3877833660710417,2.699885605928331
5.5,2.548791843922731,2.392695035538007,2.7007334534410896
5.6,2.5517054755913335,2.3975550737017945,2.7015648914563344
5.7,2.554579126359016,2.4023752123949347,2.702369148986819
5.8,2.557412796225777,2.4071441031962713,2.7031462260325423
5.9,2.560206485191617,2.4119090103448966,2.703896122593506
6,2.5629601932565365,2.416871444831478,2.704618838669709
6.1,2.5656739204205348,2.4219080413937313,2.7053775234792257
6.2,2.5683476666836125,2.4266152743909863,2.7061415885361617
6.3,2.5709814320457696,2.4311779622901666,2.7069014539448233
6.4,2.573575216507005,2.4358993561048172,2.7076639449538105
6.5,2.576129020067321,2.4405028379836016,2.708397568485671
6.6,2.578642842726715,2.4448112701163485,2.7090976987217985
6.7,2.5811166844851883,2.449205490235325,2.7097610010333537
6.8,2.5835505453427405,2.4535677875333533,2.710395563567025
6.9,2.5859444252993726,2.4579444440648994,2.7108978336735983
7,2.5882983243550837,2.4622782494597932,2.711532892021289
7.1,2.5906122425098737,2.466562203044489,2.7117841036198316
7.2,2.5928861797637426,2.4708648105809354,2.7118958447054746
7.3,2.595120136116691,2.474858523190676,2.7123408607867328
7.4,2.5973141115687186,2.4787669225290476,2.712559793253194
7.5,2.599468106119825,2.482737536409931,2.7127589978445172
7.6,2.6015821197700104,2.4866301122212935,2.712986303967731
7.7,2.6036561525192754,2.490654177067947,2.7131844118082373
7.8,2.6056902043676198,2.494562468682105,2.713504113375797
7.9,2.6076842753150427,2.4982138796697964,2.713701117564648
8,2.609638365361545,2.5019452674901883,2.71373904523365
8.1,2.6115524745071257,2.5057874169151466,2.7138263898393475
8.2,2.6134266027517867,2.509550287507648,2.7137473858499863
8.3,2.6152607500955267,2.5132711894168756,2.713953276713686
8.4,2.617054916538346,2.5169330965973264,2.714119759232779
8.5,2.6188091020802435,2.520528552669341,2.7143857540315035
8.6,2.6205233067212204,2.5239414603689276,2.7144292708632505
8.7,2.6221975304612775,2.5270843999728356,2.7143792993548463
8.8,2.6238317733004126,2.5301183544189736,2.7141776952621512
8.9,2.625426035238627,2.533014605621042,2.7140007580119416
9,2.626980316275921,2.536171963712703,2.713940590951286
9.1,2.6284946164122935,2.539147637414552,2.7140767057004913
9.2,2.629968935647746,2.542035579809739,2.71427550546054
9.3,2.631403273982277,2.545088013765572,2.714250475828556
9.4,2.6327976314158876,2.5480963421013136,2.7142676287048912
9.5,2.634152007948577,2.550858786646323,2.714233856263597
9.6,2.6354664035803452,2.5534916954139018,2.7142313272387364
9.7,2.636740818311193,2.5559836646623557,2.7142359277012638
9.8,2.63797525214112,2.558452313979206,2.7141067892724324
9.9,2.639169705070126,2.5607704874959287,2.713959838595755
10,2.6403241770982113,2.5632998631187904,2.7137480080101364
10.1,2.6414386682253754,2.5658513468160162,2.713659411656656
10.2,2.642513178451619,2.568004088764592,2.7135093490695263
10.3,2.643547707776942,2.57028443106314,2.7134201755038045
10.4,2.644542256201344,2.5721927970615717,2.7132423022929024
10.5,2.645496823724825,2.5743883165234855,2.7132282562036956
10.6,2.646411410347384,2.576793050211936,2.7131190050591982
10.7,2.6472860160690237,2.578880221230742,2.7129680098497806
10.8,2.648120640889742,2.5809075469632683,2.7127442526859866
10.9,2.64891528480954,2.5824313261745626,2.7127284787867554
11,2.649669947828416,2.5841627799288647,2.712616433075091
11.1,2.6503846299463714,2.585856954005866,2.712302177619195
11.2,2.651059331163407,2.587406783998106,2.7119858273367186
11.3,2.651694051479521,2.589008578688814,2.7116366650148898
11.4,2.6522887908947146,2.590550360993009,2.7111786614657136
11.5,2.6528435494089866,2.5920091196825448,2.710795566853202
11.6,2.6533583270223375,2.593348036716163,2.710434950178004
11.7,2.653833123734769,2.5946596601153815,2.7099320868443275
11.8,2.654267939546278,2.59592854984715,2.7094626469069114
11.9,2.6546627744568676,2.5971838028733867,2.7091804588903567
12,2.6550176284665357,2.598583551535694,2.7090672214820746
12.1,2.6553325015752827,2.600040424904091,2.708583563476769
12.2,2.6556073937831095,2.601227669306636,2.707860499566622
12.3,2.6558423050900144,2.602117309009102,2.707275988646953
12.4,2.6560372354959996,2.60305845607797,2.706883330372385
12.5,2.6561921850010637,2.6041624346040404,2.7064520584168443
12.6,2.656307153605206,2.6047488366591027,2.7059775469617247
12.7,2.6563821413084288,2.6055322493046233,2.7053241125618674
12.8,2.6564171481107293,2.6061888159677613,2.704586734980941
12.9,2.65641217401211,2.607130791027515,2.7037010388949883
13,2.6563672190125702,2.6080398854891893,2.703063448553218
13.1,2.656282283112108,2.608789940406548,2.70220827885721
13.2,2.656157366310726,2.609660326800627,2.7012047998374187
13.3,2.6559924686084226,2.610317733410096,2.700532188663185
13.4,2.6557875900051995,2.6108475851799278,2.699701240300511
13.5,2.655542730501055,2.6111915796428082,2.6990525619666217
13.6,2.6552578900959887,2.6115167932810257,2.698135897431752
13.7,2.6549330687900023,2.6119342666075074,2.697138583823051
13.8,2.6545682665830945,2.612177663191143,2.6962334965509065
13.9,2.6541634834752665,2.6122296533576925,2.6951454719231154
14,2.653718719466518,2.6119914879614083,2.6939546119116744
14.1,2.6532339745568474,2.612230114276015,2.6928011616817673
14.2,2.652709248746257,2.6124478833217206,2.691546607407248
14.3,2.6521445420347454,2.6123397792283733,2.690339487541611
14.4,2.651539854422313,2.6121306570416047,2.689108252325509
14.5,2.65089518590896,2.6120859554465246,2.6880043316490854
14.6,2.6502105364946855,2.6118007276682667,2.686885993986372
14.7,2.649485906179491,2.611391877446424,2.6857364026964845
14.8,2.6487212949633747,2.6108916582681925,2.6844261693342206
14.9,2.647916702846338,2.6103069710197317,2.683040125158864
15,2.6470721298283806,2.6100143442782193,2.681660433376265
15.1,2.646187575909502,2.6096902582766175,2.6804375304377412
15.2,2.645263041089703,2.60916358358132,2.679184589815348
15.3,2.6442985253689826,2.608673347823278,2.677935717912807
15.4,2.6432940287473414,2.608320838725146,2.676665869503114
15.5,2.64224955122478,2.607805924573418,2.6752075735084477
15.6,2.6411650928012973,2.60717227042198,2.673732665094427
15.7,2.640040653476894,2.6063960479163395,2.6723202251882117
15.8,2.638876233251569,2.605537713895517,2.6708831743016415
15.9,2.637671832125324,2.6043862556337345,2.669430792937139
16,2.636427450098158,2.6034134337408714,2.667827506815791
16.1,2.6351430871700705,2.602513161871478,2.6663729052634624
16.2,2.633818743341063,2.6013022501416643,2.664884094108105
16.3,2.6324544186111343,2.600251717362156,2.663506026273387
16.4,2.631050112980285,2.5988672490287,2.66199561862427
16.5,2.6296058264485147,2.5977291411956758,2.6605004011192452
16.6,2.628121559015823,2.5966079334606977,2.6589235488857934
16.7,2.626597310682211,2.595187855748815,2.6572717592156545
16.8,2.625033081447678,2.593949746788039,2.655526585526318
16.9,2.6234288713122247,2.592230483941799,2.6538346810796654
17,2.6217846802758498,2.5908026328209317,2.652013025106023
17.1,2.620100508338554,2.5893099482198854,2.650174075312379
17.2,2.618376355500338,2.587683505545062,2.6483515886479068
17.3,2.6166122217612005,2.5860711456714176,2.6464708973157163
17.4,2.614808107121142,2.584374813604288,2.6446865204062475
17.5,2.6129640115801633,2.5826102849895314,2.6428659898827824
17.6,2.6110799351382634,2.580802125916193,2.6410119266835688
17.7,2.609155877795443,2.578988922208148,2.6389469030750456
17.8,2.6071918395517013,2.577143571348171,2.6368728903709386
17.9,2.605187820407039,2.5752872897397014,2.6350284795159507
18,2.603143820361456,2.5732077729686167,2.633367549094144
18.1,2.6010598394149516,2.5710593475387276,2.631320926533828
18.2,2.598935877567527,2.568928942615659,2.6290467911620157
18.3,2.5967719348191807,2.566654430636562,2.626850747481358
18.4,2.5945680111699145,2.5642505359386085,2.6247539753082236
18.5,2.5923241066197273,2.562091960622273,2.6226096357890336
18.6,2.5900402211686187,2.559705574658638,2.6203860369339083
18.7,2.58771635481659,2.557490820413369,2.618034002215253
18.8,2.585352507563639,2.5551194092867924,2.615565529003261
18.9,2.5829486794097685,2.5528240504697663,2.613034115282941
19,2.580504870354977,2.550547062600155,2.610527930097616
19.1,2.578021080399264,2.5481549276542896,2.60806815268285
19.2,2.5754973095426306,2.545656073268982,2.605556928516027
19.3,2.572933557785076,2.54314411577149,2.6030040803965226
19.4,2.570329825126601,2.540618396015077,2.6004805252817382
19.5,2.5676861115672054,2.5376903433243916,2.5980835033436174
19.6,2.5650024171068875,2.5348228308869882,2.5953361408092324
19.7,2.56227874174565,2.53192745233624,2.5926201060142464
19.8,2.5595150854834916,2.5289692666635046,2.589757625278505
19.9,2.556711448320412,2.5260699821247963,2.5867735670396375
20,2.553867830256412,2.5228720509260407,2.5839734900669127
20.1,2.55098423129149,2.520031197895073,2.581003931741689
20.2,2.548060651425649,2.5173336820602152,2.577988206629705
20.3,2.5450970906588855,2.5143131500510667,2.574921901987943
20.4,2.5420935489912013,2.511215181564795,2.571996654971991
20.5,2.539050026422597,2.508066452024938,2.5688612502614125
20.6,2.5359665229530712,2.5048916595750375,2.565648438650187
20.7,2.5328430385826257,2.5017614149032714,2.5625438293460396
20.8,2.5296795733112583,2.49854215877516,2.5593865841316337
20.9,2.52647612713897,2.495511141111068,2.556169223581353
21,2.523232700065762,2.4922129271388807,2.5528613640801527
21.1,2.5199492920916313,2.489082521788945,2.5495084073200824
21.2,2.516625903216581,2.4856134506322696,2.5460248139244515
21.3,2.513262533440609,2.4823224702439664,2.5425941239667176
21.4,2.5098591827637167,2.479070139541858,2.5391962815708036
21.5,2.5064158511859045,2.4756787016242643,2.5357688955026814
21.6,2.50293253870717,2.4723309151839095,2.532182415109551
21.7,2.499409245327515,2.4689877901725135,2.528385951371556
21.8,2.4958459710469394,2.4655801269076276,2.5248892709136443
21.9,2.492242715865443,2.462028007370499,2.5212812733567977
22,2.4885994797830255,2.458469517837549,2.517496491811775
22.1,2.484916262799687,2.454910353441706,2.51379864759899
22.2,2.481193064915428,2.451343720033199,2.5099907997171798
22.3,2.477429886130248,2.4474939954066603,2.506290831350675
22.4,2.473626726444147,2.4437154405403003,2.502541544175914
22.5,2.469783585857126,2.439711363051769,2.498721431507949
22.6,2.4659004643691826,2.4355397609850886,2.494924513115426
22.7,2.4619773619803196,2.4316621669928473,2.4909244260372096
22.8,2.4580142786905355,2.427844006944394,2.486942782731984
22.9,2.45401121449983,2.423969450684998,2.482950783079983
23,2.449968169408204,2.420101469149579,2.4789636089506164
23.1,2.4458851434156568,2.4160754528709485,2.474954187494138
23.2,2.4417621365221898,2.4120896848627953,2.470891550739907
23.3,2.4375991487278013,2.4077331537119484,2.466812970980878
23.4,2.4333961800324913,2.403583221877782,2.4626339250517413
23.5,2.4291532304362615,2.399132616625627,2.4585882833994193
23.6,2.4248702999391103,2.394897038543034,2.4543949123299296
23.7,2.4205473885410385,2.3905161744845183,2.4500933016614126
23.8,2.416184496242045,2.386026070371297,2.445722868273731
23.9,2.411781623042131,2.3814979644432768,2.441352511045971
24,2.4073387689412975,2.3767317183552485,2.4369483521789927
24.1,2.4028559339395414,2.371902857509765,2.432516333526002
24.2,2.3983331180368657,2.367136092012955,2.4282003877426144
24.3,2.3937703212332684,2.3625205884077314,2.4237797809163597
24.4,2.38916754352875,2.357779890610792,2.419230720285698
24.5,2.384524784923312,2.3530113317491224,2.414626299542256
24.6,2.379842045416952,2.3482750784402135,2.4099966687133545
24.7,2.3751193250096714,2.343504826441558,2.4053114303333523
24.8,2.37035662370147,2.3385917296541257,2.400536737747006
24.9,2.365553941492348,2.333512244728464,2.3958113291424055
25,2.360711278382305,2.328504703032304,2.391073397348161
25.1,2.35582863437134,2.323440598315612,2.3863591767723125
25.2,2.350906009459456,2.31827290308378,2.3814010437230193
25.3,2.3459434036466504,2.312961986213103,2.376485791961339
25.4,2.3409408169329238,2.307767095450226,2.3715018339472533
25.5,2.3358982493182765,2.3024095441731482,2.366429106700659
25.6,2.3308157008027077,2.296947130626275,2.361333878570225
25.7,2.3256931713862192,2.2911987719369513,2.3564125775502824
25.8,2.3205306610688092,2.2858073621322643,2.351173299102009
25.9,2.3153281698504786,2.2802465241788554,2.3461274661758758
26,2.310085697731227,2.2746805212692043,2.3409143866357667
26.1,2.304803244711054,2.268916986539096,2.3358579279390455
26.2,2.2994808107899614,2.26368174852965,2.33063436841297
26.3,2.2941183959679465,2.258069253347061,2.325537922002183
26.4,2.2887160002450115,2.252408897514469,2.3203661693363884
26.5,2.283273623621156,2.2462745058316846,2.3150695944515305
26.6,2.277791266096379,2.240471079414588,2.3097088739535034
26.7,2.272268927670681,2.2343624338727466,2.3044723993990663
26.8,2.266706608344063,2.228336969972756,2.299074956671519
26.9,2.261104308116523,2.2225433952966283,2.2937345356333383
27,2.255462026988064,2.2164666687745838,2.2883607586570354
27.1,2.249779764958682,2.210431383891225,2.28304291102372
27.2,2.2440575220283803,2.2042191231118515,2.277645391128329
27.3,2.2382952981971576,2.198102648969285,2.272297841389067
27.4,2.232493093465014,2.19192261158524,2.2669750827677246
27.5,2.2266509078319494,2.1857624944219505,2.261605232407352
27.6,2.220768741297964,2.179576079235477,2.256018099686722
27.7,2.214846593863058,2.1735098161503195,2.2501678373800678
27.8,2.2088844655272304,2.1673905797286093,2.2449192828988034
27.9,2.202882356290483,2.1609478153280457,2.2394234132471693
28,2.1968402661528144,2.154438890326851,2.233923101800256
28.1,2.190758195114224,2.1480469430416718,2.2283968896567226
28.2,2.184636143174714,2.141556848179476,2.2226028298342424
28.3,2.178474110334283,2.1348115118609803,2.216956793267288
28.4,2.1722720965929305,2.1281686549521233,2.2112118547825337
28.5,2.166030101950658,2.1212322367661898,2.2053260980194738
28.6,2.1597481264074636,2.1140573542228323,2.199604320209552
28.7,2.153426169963349,2.1071239490578657,2.1939002629787483
28.8,2.1470642326183134,2.100176797859235,2.1881191818705865
28.9,2.140662314372357,2.0933297089749963,2.1824550356140913
29,2.13422041522548,2.0863489978277974,2.176616707089454
29.1,2.127738535177681,2.079310599855242,2.1708560320701604
29.2,2.1212166742289624,2.0721381668929943,2.164910603315413
29.3,2.1146548323793226,2.0647076379247142,2.1592784602941153
29.4,2.1080530096287617,2.0575126239217463,2.1533149223606882
29.5,2.1014112059772803,2.050109129378705,2.1474305069624666
29.6,2.0947294214248777,2.0429737460635105,2.1414308714744656
29.7,2.0880076559715546,2.035661100879823,2.1353911853502727
29.8,2.0812459096173104,2.0282302506541887,2.1293245642107648
29.9,2.074444182362145,2.0207554182798724,2.123215144514922
30,2.06760247420606,2.012980909074944,2.1170568685669564
30.1,2.0607207851490528,2.0051314623455623,2.110846731882283
30.2,2.0537991151911252,1.997333508418754,2.1047110493886247
30.3,2.046837464332277,1.9895836161787994,2.0985063241093522
30.4,2.0398358325725074,1.981683163671653,2.09223405787258
30.5,2.0327942199118176,1.9737397279551996,2.0859152099748917
30.6,2.0257126263502063,1.9657850062418567,2.0796116224334886
30.7,2.0185910518876744,1.9577823852973293,2.073302558582357
30.8,2.011429496524222,1.9494829452793656,2.0671081259474517
30.9,2.0042279602598483,1.9412460497757602,2.0609943235830137
31,1.996986443094554,1.9328010927392936,2.054686007361004
31.1,1.9897049450283384,1.9246002737213341,2.048473565153248
31.2,1.9823834660612025,1.916325798262332,2.042078428013898
31.3,1.9750220061931458,1.9077924078524733,2.0357330581047184
31.4,1.9676205654241679,1.8992958357348235,2.0293316343056818
31.5,1.9601791437542695,1.8906729970593215,2.022880373553215
31.6,1.9526977411834492,1.8820592559639318,2.016434670284275
31.7,1.9451763577117094,1.8730788835768912,2.0099932593267047
31.8,1.9376149933390483,1.8644127645191213,2.0032573667928437
31.9,1.930013648065466,1.8555393264844566,1.9967403125680572
32,1.922372321890963,1.8465919688140633,1.9900201957734431
32.1,1.914691014815539,1.8373107394122017,1.9834969356190495
32.2,1.9069697268391943,1.828417022944141,1.9768024565049798
32.3,1.899208457961929,1.8191292928671408,1.9702669585822266
32.4,1.8914072081837425,1.8097732470983086,1.9634929838053752
32.5,1.8835659775046354,1.8001689300786863,1.956793727921048
32.6,1.875684765924607,1.7908077952697377,1.9500728824153952
32.7,1.8677635734436582,1.781198551756928,1.9434331583080584
32.8,1.8598024000617888,1.7716113057585203,1.9366788214711959
32.9,1.8518012457789976,1.7620724924837332,1.9299948921446124
33,1.8437601105952863,1.7526506347808817,1.923394253378941
33.1,1.8356789945106535,1.743215218252809,1.9169367154278456
