temp,mean,conf_lower,conf_upper
0,6.714794826044414,5.3114092145419445,6.819166428949135
0.1,6.741250652216517,5.318459188757414,6.846863878121354
0.2,6.768194563580174,5.325691185255949,6.87499088999975
0.3,6.795635299106683,5.333109810603518,6.904215933348682
0.4,6.823581746631585,5.340719784794815,6.93388422038034
0.5,6.852042945166328,5.348525943937274,6.964433014675608
0.6,6.881028087238873,5.356533242994671,6.996656528878265
0.7,6.910546521263378,5.3647467585916155,7.028670865172193
0.8,6.94060775393909,5.373171691879971,7.062000858704772
0.9,6.971221452678509,5.381813371468595,7.095083885866424
1,7.002397448064978,5.390677256417512,7.127860639558576
1.1,7.03414573633974,5.3997689392977914,7.161687099936837
1.2,7.066476481918558,5.4090941493184905,7.197104773561861
1.3,7.0994000199379546,5.418658755521796,7.233745954602633
1.4,7.132926858831108,5.428468770047815,7.271093395449243
1.5,7.167067682933481,5.438530351470274,7.309262529931598
1.6,7.2018333551181435,5.448849808204439,7.348402533623162
1.7,7.237234919460855,5.459433601988708,7.3882235954001345
1.8,7.273283603934855,5.469993899626673,7.4281857140161565
1.9,7.3099908231353705,5.480779943149053,7.4690164202222284
2,7.347368181033771,5.4918330768502335,7.511148798744261
2.1,7.3854274737613395,5.503159750403214,7.554094497355798
2.2,7.424180692422555,5.514766563772193,7.597868689607967
2.3,7.463640025937822,5.526660270528787,7.642055928189083
2.4,7.503817863915496,5.538847781234872,7.686549146770047
2.5,7.544726799553103,5.551336166893157,7.731573290142983
2.6,7.5863796325675565,5.564132662466487,7.778068770405716
2.7,7.628789372154239,5.577244670467141,7.826163269636954
2.8,7.671969239974686,5.590679764617134,7.875181744919897
2.9,7.715932673172688,5.604445693580598,7.9251412914053985
3,7.760693327418531,5.618550384769596,7.976059300660292
3.1,7.806265079981102,5.63300194822417,8.027953465181788
3.2,7.852662032827546,5.647808680568086,8.080841782959661
3.3,7.899898515750129,5.662979069041205,8.134742562085874
3.4,7.947989089519941,5.678521795609634,8.189674425411356
3.5,7.996948549067049,5.694445741155036,8.245656315249526
3.6,8.046791926686643,5.710759989743866,8.302689749409728
3.7,8.097534495270711,5.727473832978066,8.360755506639297
3.8,8.149191771564759,5.744596774428102,8.419927716127992
3.9,8.201779519449014,5.762138534149603,8.480226599575296
4,8.255313753243524,5.7801090532847805,8.541672721987746
4.1,8.309810741036557,5.7985184987496625,8.60458639029752
4.2,8.365287008035635,5.817377268008428,8.668590743344314
4.3,8.421759339940463,5.836695993935844,8.733694692430662
4.4,8.47924478633706,5.856485549768989,8.800034323245258
4.5,8.53776066411225,5.87675705414944,8.86614464923793
4.6,8.597324560887698,5.8975218762569455,8.934597235566647
4.7,8.657954338472575,5.91879164103574,9.004697835132484
4.8,8.719668136333922,5.940578234514566,9.076136039799913
4.9,8.782484375083726,5.96289380922149,9.149074866029025
5,8.846421759981592,5.985750789694609,9.222694147304882
5.1,8.91149928445199,6.00916187808959,9.2973282894041
5.2,8.977736233614834,6.0331400598852385,9.373356328168935
5.3,9.045152187828165,6.057698609687913,9.450803131700852
5.4,9.113767026241684,6.082851097135843,9.53046252660453
5.5,9.183600930359695,6.108611392904407,9.611709209426838
5.6,9.254674387612113,6.1349936748131215,9.694480517103978
5.7,9.32700819493192,6.16286560896281,9.778803619772058
5.8,9.400623462337611,6.191835535188,9.864706127310738
5.9,9.475541616518832,6.221539034587652,9.9522160950155385
6,9.55178440442361,6.251994133185705,10.04136202929154
6.1,9.629373896845244,6.283219280089239,10.132172893366336
6.2,9.708332492007017,6.315233356678759,10.224678113019829
6.3,9.788682919142689,6.348055685969277,10.318907582328377
6.4,9.870448242070719,6.381706042144126,10.414891669420674
6.5,9.953651862760003,6.416204660263582,10.51266122224264
6.6,10.038317524884878,6.451572246149943,10.612247574328391
6.7,10.124469317366984,6.487829986451151,10.713682550574235
6.8,10.212131677901505,6.524999558884548,10.816998473012553
6.9,10.301329396465198,6.563103142662578,10.922228166582148
7,10.39208761880348,6.602163429102178,11.029404964891588
7.1,10.484431849893802,6.642203632419297,11.138562715971867
7.2,10.578387957382294,6.683247500710363,11.249735788014489
7.3,10.673982174990655,6.725319327121818,11.362959075090936
7.4,10.771241105890077,6.768443961209239,11.478268002849346
7.5,10.870191726038865,6.812646820487681,11.595698534183898
7.6,10.970861387480323,6.859619583242494,11.715287174872348
7.7,11.073277821597223,6.9086198653888795,11.837070979176813
7.8,11.177469142319154,6.9589075242632825,11.961087555402807
7.9,11.283463849278832,7.010515150556553,12.087375071411238
8,11.391290830913277,7.0634761140861935,12.215972260077786
8.1,11.500979367505671,7.117824580646231,12.346918424694055
8.2,11.612559134163462,7.173595529148856,12.480253444304346
8.3,11.726060203728132,7.230824769059444,12.616017778971877
8.4,11.841513049611947,7.2895489581263755,12.754252474967894
8.5,11.958948548556682,7.349805620407637,12.894999169876883
8.6,12.078397983309227,7.411633164594613,13.038300097610795
8.7,12.199893045208746,7.474952667957386,13.18419809332486
8.8,12.32346583667988,7.53616986731584,13.332736598227335
8.9,12.449148873626221,7.5988864845790145,13.483959664275156
9,12.576975087718132,7.660711899382933,13.637911958747168
9.1,12.706977828568714,7.722211380376787,13.794638768686204
9.2,12.83919086579155,7.785105511359903,13.954186005201066
9.3,12.97364839093353,7.84942427037944,14.11636788668764
9.4,13.110385019275853,7.917298454200224,14.281298374463162
9.5,13.249435791496103,7.989506720571506,14.44917627856214
9.6,13.396704720957912,8.064630766254165,14.625917488842553
9.7,13.546469513396113,8.141588524985131,14.805950127524884
9.8,13.698768529720859,8.22279891123206,14.988845146171531
9.9,13.853640597780192,8.309142437997753,15.174877954337937
10,14.011125013830993,8.397725421910367,15.364254624155604
10.1,14.171261543831754,8.488603198116751,15.556999812084984
10.2,14.334090424548318,8.5818323633167,15.753173493318004
10.3,14.499652364463035,8.677470800255183,15.95280284963727
10.4,14.667988544477751,8.77557770250317,16.155969793962218
10.5,14.839140618400432,8.876185023511491,16.36271287440753
10.6,15.01315071320512,8.979378199870224,16.573243195774253
10.7,15.190061429054238,9.08520473333872,16.787927517862038
10.8,15.369915839072295,9.193769583034582,17.006382573300336
10.9,15.552757488859157,9.305117645516377,17.228667993368457
11,15.738630395731075,9.419316446610683,17.454844135300423
11.1,15.927579047677032,9.536435001576935,17.68499039658122
11.2,16.119648402017432,9.656543841840183,17.919118648609384
11.3,16.314883883752085,9.779715041925742,18.157331370383655
11.4,16.513331383583417,9.906022246583934,18.399687197633213
11.5,16.715037255601043,10.035540698088258,18.64622243721682
11.6,16.92004831461264,10.168347263692596,18.89702183813675
11.7,17.128411833106163,10.304520463228792,19.15224003949768
11.8,17.340175537827477,10.44414049682665,19.411833598197948
11.9,17.555387605957236,10.587289272737127,19.675871263903282
12,17.774096660870107,10.734050435236309,19.944443430599197
12.1,17.996351767458997,10.884509392589022,20.21761841465594
12.2,18.222202427006152,11.038753345046796,20.495603977071465
12.3,18.451698571582703,11.19687040777822,20.778172650085914
12.4,18.68489055795731,11.35895109899902,21.065462305460112
12.5,18.921829160993997,11.52508930822385,21.3573106202623
12.6,19.16256556651881,11.695379679331252,21.65398579278146
12.7,19.407151363633787,11.869918787611802,21.955784779583116
12.8,19.655638536456564,12.048805167372082,22.262553489497545
12.9,19.908079455262914,12.2321393393542,22.574376768387246
13,20.164526867008572,12.42002383793407,22.891419570766246
13.1,20.425033885206474,12.612563238056396,23.213756001905768
13.2,20.689653979134167,12.809864181862636,23.54333813308328
13.3,20.958440962345776,13.012035404965111,23.88025718548686
13.4,21.231448980461746,13.219187762319596,24.222865975727313
13.5,21.508732498208815,13.431434253643936,24.571178694123752
13.6,21.790346285681906,13.648890048328164,24.925382191247273
13.7,22.076345403798474,13.87167250977889,25.285335497371833
13.8,22.36678518891506,14.099901219137656,25.65143254287087
13.9,22.661721236574763,14.333697998308528,26.023687143905008
14,22.961209384353143,14.573186932229111,26.39948364569599
14.1,23.26530569376959,14.818494390312727,26.780260648961
14.2,23.57406643122929,15.069749046987669,27.16749677572925
14.3,23.887548047960546,15.327081901255688,27.560940149250115
14.4,24.20580715891073,15.59062629518674,27.960885173354825
14.5,24.528900520562814,15.860517931262816,28.367804949939075
14.6,24.856885007633814,16.13689488848152,28.78083371616017
14.7,25.18981758861432,16.41989763712097,29.200810231366297
14.8,25.527755300108037,16.709669052067877,29.627029644647507
14.9,25.87075521992796,17.00635442460253,30.059538844006656
15,26.218874438905303,17.3017884429816,30.499092401323058
15.1,26.57217003136521,17.603980228677433,30.946037649503307
15.2,26.930699024222108,17.913118170644058,31.40026726856601
15.3,27.29451836464639,18.229343363121725,31.861599074261957
15.4,27.663684886251993,18.5527989940298,32.330167080748076
15.5,28.03825527375307,18.876606608982794,32.80612197947164
15.6,28.418286026036796,19.2043772737389,33.28939472126514
15.7,28.803833417596813,19.539170003652448,33.77979085844328
15.8,29.194953458270817,19.881240948471966,34.27774934707634
15.9,29.591701851223895,20.23139001283196,34.78356149650172
16,29.994133949116716,20.590788977053098,35.29705740959547
16.1,30.40230470839699,20.953526128525922,35.81831839698472
16.2,30.81626864164962,21.334854311588643,36.34720983358331
16.3,31.236079767939337,21.705855326573847,36.88375058627216
16.4,31.661791561078076,22.09461662160826,37.42812475251769
16.5,32.09345689574596,22.48795716497837,37.9808733086899
16.6,32.531127991394136,22.882340235856415,38.54274557206974
16.7,32.97485635385435,23.310993273611608,39.11294781449533
16.8,33.4246927145781,23.74446453567311,39.691474732270876
16.9,33.88068696742637,24.175430792513986,40.27840128946828
17,34.34288810292735,24.615307897912952,40.87380127956767
17.1,34.811344139918575,25.064337752608303,41.47774722515351
17.2,35.286102054485845,25.522674155652858,42.090310273408996
17.3,35.767207706109616,25.98449203995997,42.71156008726362
17.4,36.2547057609265,26.462698200599508,43.341564732042315
17.5,36.74863961201004,26.950777104650143,43.98038168310229
17.6,37.24905129657395,27.44881444326562,44.62805604333641
17.7,37.75598140999512,27.956968141124477,45.28467745770439
17.8,38.269469016553316,28.47539662606893,45.95030634887114
17.9,38.78955155677994,29.00425871685699,46.625000901859586
18,39.31626475130483,29.54371350372202,47.30896661708134
18.1,39.84964250108777,30.09392022139837,48.002057703329555
18.2,40.3897167839167,30.655038114277485,48.70431839014395
18.3,40.936517547051984,31.22749062454421,49.415853464747315
18.4,41.49007259589204,31.810982327439888,50.13596397838812
18.5,42.05040747853174,32.405863139165106,50.864389389579266
18.6,42.617545366081714,33.0122907753356,51.60164475935307
18.7,43.19150692861161,33.63042214910358,52.34820050317816
18.8,43.77231020657766,34.260413180599485,53.10415111117492
18.9,44.35997047758968,34.90168462084564,53.869095108267736
19,44.954500118368315,35.54591220184329,54.643203711362744
19.1,45.55590846173957,36.09994582178886,55.42666562958389
19.2,46.164201648508424,36.568949375977184,56.21948742825102
19.3,46.77938247404876,37.09799537108333,57.02205484613641
19.4,47.40145022944222,37.80899536838338,57.834038496284094
19.5,48.03040053699303,38.59996668449873,58.65538448699996
19.6,48.66622517994157,39.342060771312795,59.484138291751414
19.7,49.30891192619312,39.956284887114336,60.320136030862926
19.8,49.958444345873716,40.53827934842434,61.16521821823071
19.9,50.61480162251855,41.130004932114126,62.019341602376024
20,51.27795835769375,41.691739583067765,62.88245553437195
20.1,51.94788436884492,42.25313125972028,63.75450163205088
20.2,52.624544480160964,42.866140532329034,64.6354134321329
20.3,53.30789830623489,43.49641018868773,65.52511602987897
20.4,53.99790002829734,44.13721631844925,66.42352570586476
20.5,54.69449816279035,44.7887359717123,67.33054953945425
20.6,55.397635322045005,45.451149186912815,68.24608500854418
20.7,56.10724796681589,46.14304670778611,69.17001957513052
20.8,56.82326615042104,46.810153120611034,70.10223025624215
20.9,57.54561325422806,47.50559647825336,71.04258317976614
21,58.274205714216606,48.20030920919643,71.9909331246777
21.1,59.008952738345165,48.933135623748264,72.94712304517313
21.2,59.7497560144349,49.593137443831814,73.91098357818731
21.3,60.496509408282186,50.22300036311715,74.89082840926231
21.4,61.2490986516972,50.88824776061648,75.88193468207147
21.5,62.00740102015988,51.788337259953636,76.88737569897512
21.6,62.77128499977525,52.47540577636234,77.90251743496862
21.7,63.540609943200806,53.10125985685798,78.92552448859766
21.8,64.3152257142076,53.731903927563145,79.95619311391431
21.9,65.09497232052907,54.367246043277376,80.99430510661642
22,65.87967953463988,55.00718778579883,82.03962721819852
22.1,66.66916650209737,55.651624018429565,83.09554478473396
22.2,67.46324133706695,56.300442632626826,84.16451180621455
22.3,68.26170070464198,56.95352428656627,85.24044292294828
22.4,69.06432938955845,57.610742135379226,86.32288422875756
22.5,69.87089985088984,58.27196155281606,87.40432129098886
22.6,70.68117176230054,58.936980726745404,88.49142614228809
22.7,71.4948915374181,59.60383134892932,89.57804628800864
22.8,72.31179183987732,60.39304440987414,90.68176583758103
22.9,73.13159107757221,61.041808181563574,91.7979163608274
23,73.95399288064029,61.69139125970537,92.91901034482231
23.1,74.77868556268999,62.50238979028114,94.04464825395293
23.2,75.60534156476511,63.387940884738434,95.15852001193315
23.3,76.43361688153183,64.28066449572589,96.3075310587185
23.4,77.26315046915036,65.18062523344183,97.42963870567597
23.5,78.09356363428437,66.05528857984027,98.51422391087665
23.6,78.9244594036842,66.72876537143522,99.62401253991405
23.7,79.75542187376018,67.43291466550276,100.73818646858535
23.8,80.58601553955035,68.10302758142592,101.92458901967166
23.9,81.41578460246677,68.77306117039048,103.08982068002898
24,82.24425225618643,69.44179106553385,104.21588489531898
24.1,83.07091995003653,70.108821129838,105.39799747718607
24.2,83.89526662920491,70.77234583550081,106.53617089082236
24.3,84.71674795108456,71.41083245736166,107.78643876406157
24.4,85.5347954770446,72.04507282229184,109.12462386529741
24.5,86.34881583889697,72.67454999606493,110.45608792146204
24.6,87.15818987931142,73.29872563802348,111.88723886163038
24.7,87.96227176540151,73.91703928696145,113.26711751256923
24.8,88.76038807469371,74.52890762526957,114.53947435220404
24.9,89.55183685265757,75.13736789981343,115.97368521442858
25,90.33588664096051,75.7800911250221,117.37852547675162
25.1,91.11177547557946,76.36919781349783,119.09699253065595
25.2,91.87870985388327,77.20652443364185,120.51330494144605
25.3,92.63586366976911,77.9143353083587,122.02989795482712
25.4,93.382377115913215,78.67391657668463,123.88490380747936
25.5,94.11735555216822,79.36961719637871,125.66912652948126
25.6,94.83986833911086,80.06775048508929,127.60339171725276
25.7,95.54894763571848,80.73243956960208,129.42910944655364
25.8,96.24358716011844,81.43726017143655,131.39197313018153
25.9,96.92274091233016,82.11176318838874,133.0753378610205
26,97.5853218578834,82.74019027851563,134.75678918522183
26.1,98.23020057117056,83.40827690088027,136.76941408161537
26.2,98.85620383735042,84.07797708532743,138.5676704484468
26.3,99.46211321159517,84.616894985837,140.80128900412512
26.4,100.04666353443216,85.14861585007887,142.26722441697473
26.5,100.60854140190045,85.7204250172285,143.80849842408944
26.6,101.14638358920139,86.31419988137178,145.14701761809872
26.7,101.65877542649024,86.86320549466281,146.41035504174573
26.8,102.14424912541335,87.39530590002984,148.0241813608676
26.9,102.60128205495687,87.91064121493528,149.75710440535255
27,103.02829496513226,88.38603831116393,151.78356091607378
27.1,103.42365015698444,88.7075207285873,153.82051280905736
27.2,103.78564959736006,89.08640945077794,156.24603663055726
27.3,104.11253297683452,89.39435046947659,158.84036537350232
27.4,104.4024757091487,89.63890288161984,161.47787531092132
27.5,104.6535868704594,89.85432665772055,163.44537647231954
27.6,104.86390707665834,90.00943546603307,166.15638896857058
27.7,105.03140629696988,90.12833341515675,168.3429257269682
27.8,105.15398160198114,90.20928114130766,170.52928520379822
27.9,105.22945484420937,90.27943077192364,173.3481477485531
28,105.25557026925749,90.2740003925068,176.20918068527192
28.1,105.22999205555446,90.22471322652416,179.11183768697492
28.2,105.15030178061527,90.34279126629637,182.05440307641823
28.3,105.01399581170769,90.36615318419858,185.03430439811828
28.4,104.81848261874035,90.23876492248777,188.04781414710934
28.5,104.56108000713584,90.00171930890707,191.0896490275551
28.6,104.23901226838387,89.54003930280038,194.1524315238429
28.7,103.84940724590498,89.09786086978534,197.2259664506356
28.8,103.38929331379146,88.7732749872185,200.29626885931816
28.9,102.85559626592001,88.31038957795872,203.344257777702
29,102.24513611286031,87.44566102286632,206.3440008124996
29.1,101.5546237839394,86.83073144107662,209.26035504661817
29.2,100.78065773173095,86.27998425410665,212.04579641347013
29.3,99.91972043617857,85.13599793728147,214.63615811613005
29.4,98.96817480547355,83.89109454564449,216.94490234020748
29.5,97.9222604707338,82.54437810021413,218.73554903768323
29.6,96.77808997143657,81.09338534026743,218.9027946868203
29.7,95.53164482848636,79.53398367312839,216.614105464905
29.8,94.17877150170143,77.86222667924294,215.47900880562764
29.9,92.71517722841125,76.07422075626151,212.26596523981078
30,91.13642573978254,74.13426028458174,208.3293280608324
30.1,89.43793285136258,72.0135842980083,202.06361185977693
30.2,87.61496192426706,69.74333170946626,191.93588822326524
30.3,85.66261919331272,67.33630406916119,175.02294180272114
30.4,83.57584895830958,64.80254842797704,150.8446780914512
30.5,81.34942863460259,62.18839731017854,125.42322345569536
30.6,78.97796365886666,59.434964025129545,102.74270383149579
30.7,76.45588224602396,30.138571466894348,100.818575418694
30.8,73.77742999305062,-46.31246956835481,99.0508008367597
30.9,70.93666432532322,-146.11030107817587,97.09548689969819
31,67.927448781021,-290.5746808725813,95.26528667680024
31.1,64.74344712898709,-487.7412092977938,93.07702797700159
31.2,61.3781173153162,-749.1325322254597,90.74769626241752
31.3,57.82470523381269,-1100.5805276822632,88.50864727683623
31.4,54.076238315312324,-1574.0766504378778,85.98516942939365
31.5,50.12551893073496,-2211.504115394228,83.54422309283001
31.6,45.96511760259014,-3076.417540739372,81.11195989646237
31.7,41.58736601950383,-4269.6414107313085,78.1492918637045
31.8,36.98434984818739,-5887.468553655992,75.4557477757842
31.9,32.14790133711406,-8080.408097772703,72.7343072333052
32,27.06959170600741,-11052.312393109412,69.8104867075641
32.1,21.74072331508866,-15079.283501285881,66.5921366516848
32.2,16.152321607846304,-20535.280892084604,62.97712573757481
32.3,10.295126820927864,-27926.806473496308,59.24723412766865
32.4,4.159585454586808,-37939.88254516821,55.433997882111015
32.5,-2.2641585030998024,-51503.68284244621,51.549401775973145
32.6,-8.986272605170093,-69876.71776019088,47.52592825664636
32.7,-16.017245235036363,-94763.56952134745,43.2278736218661
32.8,-23.367895163394877,-128473.00695185519,38.65543554668917
32.9,-31.04938138033695,-174132.15102315767,33.85631204019201
33,-39.07321321042695,-235976.59142923568,28.977253795971944
33.1,-47.45126071869306,-319589.78935974836,23.9674006936676
33.2,-56.195765415760974,-432048.0812425659,18.718874619223808
33.3,-65.31935127052365,-584062.3311753919,13.223372355401173
33.4,-74.83503603901765,-788842.5394901902,7.472333924639666
