temp,mean,conf_lower,conf_upper
0,-0.0049938045771191104,-0.006054983360618427,-0.003922362904212861
0.1,-0.005137654718097838,-0.006230699390655225,-0.004034130568978341
0.2,-0.0052786921380180585,-0.00640313184729752,-0.004143454246606944
0.3,-0.005416925524968788,-0.006572295179927656,-0.0042503960914588015
0.4,-0.005552363587777607,-0.006738199690484384,-0.004354881118110065
0.5,-0.005685015056140665,-0.006900855706287818,-0.004457153834476131
0.6,-0.0058148886807539235,-0.007060273372280688,-0.004557103742662519
0.7,-0.005941993233445684,-0.007216459075502121,-0.004654720636751637
0.8,-0.00606633750731039,-0.007369427267399413,-0.004750108883366504
0.9,-0.006187930316843728,-0.007519188379951771,-0.004843094187397588
1,-0.006306780498079059,-0.0076657528713680225,-0.004933770073744964
1.1,-0.0064228969087251776,-0.007809130334711507,-0.005022126259777145
1.2,-0.006536288428305417,-0.007949331993157793,-0.005108207882166821
1.3,-0.006646963958298142,-0.008086368512155282,-0.005192222950517452
1.4,-0.006790032364006838,-0.008262410163151927,-0.005301909193006905
1.5,-0.006929931981243559,-0.008434754337338571,-0.005408929945581871
1.6,-0.0070666730278401615,-0.008603417176362966,-0.005513320718769884
1.7,-0.007200265746823968,-0.008768410807056563,-0.005614959247476261
1.8,-0.007330720406580474,-0.008929747387165727,-0.005713965200968902
1.9,-0.007458047301017676,-0.009087439105559153,-0.005810361654843479
2,-0.007582256749732022,-0.009241498182437441,-0.005904156816679862
2.1,-0.007703359098176039,-0.00939193686954484,-0.005995386602300791
2.2,-0.007821364717827616,-0.009538767450383196,-0.006084050106297915
2.3,-0.007936284006361,-0.009682001348879442,-0.006170268357962427
2.4,-0.008048127387819529,-0.009821651416762682,-0.006253878803831518
2.5,-0.008156905312790078,-0.009957726170075497,-0.006334926857873669
2.6,-0.008297728200307542,-0.010132401983011975,-0.006441383385070397
2.7,-0.008435035944573023,-0.010302982093352286,-0.006544838776564114
2.8,-0.008568840326500213,-0.010469480456604379,-0.006645371795541691
2.9,-0.008699153156926613,-0.010631911064822858,-0.006742992307284428
3,-0.008825986276812182,-0.010790287946860542,-0.006837709966505005
3.1,-0.008949351557440035,-0.010944625168622713,-0.0069296052670156484
3.2,-0.00906926090061918,-0.011094936833324031,-0.0070186868137054135
3.3,-0.009185726238889344,-0.01124123708174823,-0.007104866632252378
3.4,-0.009298759535727893,-0.011383540092510573,-0.007188186420099526
3.5,-0.009408372785758908,-0.011521860082323131,-0.007268790315243886
3.6,-0.009549677956692657,-0.011698370120913485,-0.007374496888447704
3.7,-0.009687116496079173,-0.011870372012805023,-0.007477008788111495
3.8,-0.00982070174289048,-0.012037885740105735,-0.0075763735361352004
3.9,-0.009950447070767997,-0.012200927154676001,-0.0076725313974049915
4,-0.010076365888257874,-0.012359512151089005,-0.007765554443495173
4.1,-0.010198471639048749,-0.012513656666932844,-0.007855411866348258
4.2,-0.010316777802211994,-0.01266337668311593,-0.007942104928474743
4.3,-0.010431297892444501,-0.012808710244668883,-0.008025768224937911
4.4,-0.010577145402042236,-0.012991920237834654,-0.0081343819008442
4.5,-0.010718763307688329,-0.013170034185529174,-0.008239383762077848
4.6,-0.010856166482070169,-0.013343504135169501,-0.008340704751077226
4.7,-0.01098936983716214,-0.013511707292924759,-0.008438352450247105
4.8,-0.011118388324496653,-0.01367513033636776,-0.008532384041804493
4.9,-0.011278336877166277,-0.013875962590894894,-0.008650854597034512
5,-0.011433659916640717,-0.014071448898085143,-0.00876550030068489
5.1,-0.011601923735277249,-0.014282866538736828,-0.008890340784714098
5.2,-0.01176535939290309,-0.014488233462540984,-0.009011013049459999
5.3,-0.011923983922799574,-0.014688091072942132,-0.00912753456787181
5.4,-0.012077814403521065,-0.014882472349343258,-0.009240135060108979
5.5,-0.012226867959209886,-0.015071293056875374,-0.00934903033152952
5.6,-0.012371161759914656,-0.015254653456106233,-0.009454028230252345
5.7,-0.012510713021912033,-0.01543248880817915,-0.009555091829143587
5.8,-0.012645539008031928,-0.015605026572365118,-0.009652219810639812
5.9,-0.012775657027986269,-0.01577229342073878,-0.009745464213101709
6,-0.01290108443870129,-0.01593366932910943,-0.009834903167794716
6.1,-0.0130218386446535,-0.01608970050017325,-0.009920365702268416
6.2,-0.01313793709820928,-0.01624041823053371,-0.010002090433347864
6.3,-0.013249397299968256,-0.016385897089070484,-0.010079930651075967
6.4,-0.01335623679911043,-0.01652598650399269,-0.010153940501012572
6.5,-0.013458473193747147,-0.016660576557124263,-0.010224041766088486
6.6,-0.013556124131275996,-0.016789645142803494,-0.010290378216827283
6.7,-0.013649207308739631,-0.01691311332536775,-0.010353099004442668
6.8,-0.013737740473188627,-0.01703095218568098,-0.010412457229982356
6.9,-0.013821741422048396,-0.01714391614350431,-0.010468131486813984
7,-0.013901228003490255,-0.017251248380197523,-0.010519891979471632
7.1,-0.013976218116806681,-0.01735382372658546,-0.010567606726818514
7.2,-0.014046729712790824,-0.017451084570822475,-0.010611582787072157
7.3,-0.014112780794120355,-0.01754243808443247,-0.010652090619115661
7.4,-0.014174389415745696,-0.017628568898278567,-0.010688737178913109
7.5,-0.014231573685282712,-0.017709541653737483,-0.01072156675341172
7.6,-0.014284351763409923,-0.017785837841739125,-0.01075073625756021
7.7,-0.014332741864270322,-0.01785756137873741,-0.01077621449670037
7.8,-0.014376762255877838,-0.017923995729399508,-0.010798310082134385
7.9,-0.014416431260528563,-0.017986193300038388,-0.010816545009802435
8,-0.014451767255216765,-0.01804311478804597,-0.010831118820053911
8.1,-0.014482788672055805,-0.018094754451282745,-0.010842267000714122
8.2,-0.014509513998704001,-0.018140939371552565,-0.010849670305477671
8.3,-0.014531961778795541,-0.018181820397799874,-0.010853371424760772
8.4,-0.014550150612376522,-0.01821911006534146,-0.010853475580448102
8.5,-0.014564099156346159,-0.01825158342214641,-0.01084999889193608
8.6,-0.014573826124903315,-0.018278826234288406,-0.010843046597164428
8.7,-0.014579350289998369,-0.01830113095178747,-0.010832354796590754
8.8,-0.014580690481790545,-0.01831802312950724,-0.010818051716470035
8.9,-0.014577865589110787,-0.018330073322294776,-0.01080030251341052
9,-0.014570894559930238,-0.018336996786067237,-0.010779474477221274
9.1,-0.014559796401834479,-0.018338862689924552,-0.01075553931493292
9.2,-0.014544590182503531,-0.018336811713328197,-0.01072814538445024
9.3,-0.014525295030197801,-0.018330215831940038,-0.010697295778809032
9.4,-0.014501930134250022,-0.01831949843445331,-0.010663041731762362
9.5,-0.014474514745563277,-0.01830377765668277,-0.010625098096782817
9.6,-0.014443068177115248,-0.018282873571947578,-0.010583691701722499
9.7,-0.014407609804468747,-0.018257505643442293,-0.01053864384237716
9.8,-0.01436815906628868,-0.01822806943747528,-0.010490127347215694
9.9,-0.014324735464865509,-0.018193995365013548,-0.010438393133308962
10,-0.014277358566645337,-0.018154941254733273,-0.010383345872871475
10.1,-0.014226048002766742,-0.018111656513883585,-0.010325003459773236
10.2,-0.014170823469604452,-0.01806352883818713,-0.010263588588700417
10.3,-0.01411170472931998,-0.018011574483990916,-0.010199197378492508
10.4,-0.014048711610419365,-0.017954674771597994,-0.010131939146983165
10.5,-0.013981864008318074,-0.01789329695303982,-0.010061178915202007
10.6,-0.013911181885913287,-0.01782745889412151,-0.009987090615748508
10.7,-0.01383668527416359,-0.017756709577223227,-0.00990931828253745
10.8,-0.013758394272676272,-0.017681411571772963,-0.009828060195957234
10.9,-0.013676329050302341,-0.017601355374791443,-0.009743968119115109
11,-0.013590509845739365,-0.017517429827773514,-0.00965674715607323
11.1,-0.013500956968142321,-0.017429846213212086,-0.009566333738450339
11.2,-0.013407690797742566,-0.017338207383820137,-0.009472351602435076
11.3,-0.013310731786475063,-0.017242195991350292,-0.009375189823021423
11.4,-0.013210100458614048,-0.01714292386201367,-0.009275312951701429
11.5,-0.013105817411417225,-0.0170383261886654,-0.009172575953674893
11.6,-0.01299790331577872,-0.01692927546677189,-0.009067084400659472
11.7,-0.012886378916890883,-0.01681593638473645,-0.008958960372220295
11.8,-0.012771265034915125,-0.016698146416448244,-0.008847908718245616
11.9,-0.012652582565661975,-0.016577481592400672,-0.008733893556931625
12,-0.012530352481280458,-0.016451988332924085,-0.008616155057419639
12.1,-0.012404595830957068,-0.01632215218818214,-0.00849494013012301
12.2,-0.01227533374162439,-0.016188662008363944,-0.00837132523634049
12.3,-0.012142587418679652,-0.01605131203815798,-0.008243776340353956
12.4,-0.012006378146713338,-0.015910317300682816,-0.00811406991634667
12.5,-0.01186672729024804,-0.015764078399115363,-0.007980365134431929
12.6,-0.011723656294487792,-0.015615105634872567,-0.007843882818764945
12.7,-0.011577186686078026,-0.015463354364249591,-0.0077051865820017065
12.8,-0.01142734007387637,-0.015306650581081365,-0.007563604455143219
12.9,-0.011274138149734521,-0.015145349329225687,-0.007419877266113042
13,-0.011117602689291342,-0.014979593928488771,-0.0072715701835664595
13.1,-0.010957755552777471,-0.014810628362520263,-0.007120475954912567
13.2,-0.010794618685831588,-0.01463882728788732,-0.00696740249261708
13.3,-0.010628214120328624,-0.014463492219994614,-0.006811782599950509
13.4,-0.010458563975220122,-0.014284532730877856,-0.006653802547806199
13.5,-0.010285690457386944,-0.014100972957945967,-0.00649291461062499
13.6,-0.010109615862504662,-0.013913786769052722,-0.006329048004121405
13.7,-0.009930362575921768,-0.01372328493276662,-0.006162815802344749
13.8,-0.009747953073551047,-0.013528115508751362,-0.005993216918609953
13.9,-0.009562409922774325,-0.013329716134703533,-0.005821955916770316
14,-0.009373755783360836,-0.013127922085501188,-0.005648508190630982
14.1,-0.009182013408399586,-0.012921598836050003,-0.005472476941945418
14.2,-0.008987205645245843,-0.012712891804202892,-0.005292836342807426
14.3,-0.00878935543648215,-0.012499853229048386,-0.005110911728295996
14.4,-0.00858848582089414,-0.01228515130617975,-0.004926984358791535
14.5,-0.008384619934461377,-0.012066379226974892,-0.004740590130089936
14.6,-0.008177781011363655,-0.01184476187689424,-0.00455135611313416
14.7,-0.007967992385002941,-0.011620672518809763,-0.004360197674702968
14.8,-0.0077552774890413895,-0.01139118228022789,-0.004164926429430542
14.9,-0.007539659858455708,-0.011160445177578034,-0.003967159246259752
15,-0.007321163130608205,-0.010924430050080407,-0.0037659193448050226
15.1,-0.007099811046334929,-0.01068502980487603,-0.00356309054552062
15.2,-0.006875627451051184,-0.010444139027740301,-0.0033590314314569797
15.3,-0.006648636295874834,-0.010198892448892997,-0.0031528569880807066
15.4,-0.006418861638767783,-0.009952206080496474,-0.0029440708596453944
15.5,-0.006186327645695953,-0.00970138491876158,-0.0027310395147966287
15.6,-0.005951058591808264,-0.009447155062127902,-0.0025150593257209372
15.7,-0.0057130788626349105,-0.009190656390294016,-0.002296908522036064
15.8,-0.00547241295530543,-0.008929102242876028,-0.0020775939529079665
15.9,-0.0052290854797869876,-0.008666889865085743,-0.0018570692162923404
16,-0.00498312116014325,-0.00840001774701089,-0.001632584183045768
16.1,-0.004734544835814426,-0.00813130407665978,-0.0014060823222332018
16.2,-0.004483381462918805,-0.00786227883972842,-0.001177049976087015
16.3,-0.004229656115576368,-0.007587070111090358,-9.446147355564124e-4
16.4,-0.003973393987254953,-0.007306683065393089,-7.103590909909352e-4
16.5,-0.0037146203921393822,-0.007023549829522744,-4.7489763941698025e-4
16.6,-0.0034533607665242654,-0.006737642568990002,-2.3968282223560983e-4
16.7,-0.0031896406702307876,-0.006450994977524179,-1.2872825055208284e-6
16.8,-0.002923485788048203,-0.006160657523372615,2.411764625342106e-4
16.9,-0.0026549219312005444,-0.005870541783613903,4.8538280386870285e-4
17,-0.0023839750388390574,-0.005577533554336468,7.324078588468354e-4
17.1,-0.0021106711795611265,-0.005280626017177067,9.80269855086538e-4
17.2,-0.0018350365529561082,-0.004981514220251301,0.0012320833282418555
17.3,-0.001557097491178855,-0.004678765059028574,0.0014859848233222343
17.4,-0.0012768804605515361,-0.004374619253372183,0.0017406659392159025
17.5,-9.944120631943556e-4,-0.004068226202524485,0.0019991863584605473
17.6,-7.097190386860083e-4,-0.00375895623367348,0.0022604678591005016
17.7,-4.228282657544216e-4,-0.0034469461469964963,0.0025232381579797453
17.8,-1.3376676399861522e-4,-0.003132060940260952,0.0027867049594089478
17.9,1.5743830435756276e-4,-0.0028153256362663504,0.003052468903806929
18,4.507596326791586e-4,-0.0024957339842333276,0.0033224295827201933
18.1,7.461697681003163e-4,-0.0021752509795099468,0.0035922729166317047
18.2,0.0010436411096703135,-0.0018535411634271796,0.0038653138727464233
18.3,0.0013431459064644831,-0.0015305716309601898,0.004138157118599343
18.4,0.0016446562556591243,-0.001203071794153847,0.004413930047911266
18.5,0.0019481441005696383,-8.725568057219512e-4,0.004692277633673023
18.6,0.00225358122865075,-5.395495589852796e-4,0.004975367637586595
18.7,0.002560939269458056,-2.0655111554987576e-4,0.00525909691817829
18.8,0.0028701896925698053,1.2672857391936556e-4,0.005542660891516019
18.9,0.0031813038054678573,4.63975355616139e-4,0.005826952328311214
19,0.0034942527513769275,8.032666809589718e-4,0.0061149508936551794
19.1,0.0038090075070607936,0.0011408096304376567,0.006404350511496785
19.2,0.004125538880574576,0.0014842744287314937,0.006696860422304191
19.3,0.004443817508971793,0.0018268266803092743,0.006990314980131619
19.4,0.004763813855964991,0.002170183676003864,0.00728658977424124
19.5,0.005085498209538859,0.002514146813661431,0.007582292844207114
19.6,0.005408840679514321,0.0028627306653367054,0.007877991427943147
19.7,0.005733811195062516,0.0032137250913320137,0.008177687949531968
19.8,0.006060379502167172,0.0035645776917266783,0.00848168653405868
19.9,0.0063885151610339535,0.00391840554000019,0.008788797636631764
20,0.006718187543445476,0.004272604076115058,0.009095143997394058
20.1,0.007049365830060245,0.004624937360434548,0.00939973919168414
20.2,0.007382019007654204,0.004981188830494728,0.009706363658832939
20.3,0.007716115866303144,0.005340400786311566,0.010015273266240568
20.4,0.008051624996504279,0.0057005091869318245,0.010326071712845808
20.5,0.008388514786235438,0.0060631267597307,0.01064084640040685
20.6,0.008726753417949845,0.006422453524903919,0.01095544803431133
20.7,0.009066308865504868,0.006786796837260309,0.011273689826481768
20.8,0.00940714889102269,0.0071508136030308,0.011588608933027437
20.9,0.009749241041680902,0.00751573820728347,0.011907491654211939
21,0.010092552646431127,0.00788117204011778,0.012227421967040861
21.1,0.010437050812643314,0.008247406152110245,0.01255088151564341
21.2,0.010782702422673693,0.008615128206327392,0.012875637152569463
21.3,0.011129474130354032,0.00898130678258641,0.01319963231765967
21.4,0.01147733235739973,0.009354566833007111,0.013524725043495072
21.5,0.011826243289734516,0.009727123720258565,0.013854308466231213
21.6,0.012176172873728928,0.010101198528480487,0.014181045754182133
21.7,0.012527086812350118,0.010470535476618926,0.014512479300957797
21.8,0.012878950561220187,0.010842535688142158,0.014843128544657067
21.9,0.013231729324580086,0.01121376544245998,0.015176497899049228
22,0.01358538805115634,0.011585051353701746,0.015510369765152555
22.1,0.013939891429927227,0.011958974020318118,0.015846460106709877
22.2,0.014295203885785462,0.01233246518078336,0.016185757335430373
22.3,0.014651289575093943,0.012708798255965983,0.016526299085945693
22.4,0.01500811238113102,0.013083785888868995,0.016864649046620644
22.5,0.015365635909421903,0.013457925963179095,0.01720733891853413
22.6,0.015723823482952214,0.01383504880269905,0.01754707582324802
22.7,0.01608263813725994,0.014213571952851292,0.01788661146288814
22.8,0.016442042615401747,0.014593644392873853,0.018229678504364237
22.9,0.016801999362789227,0.014971024979273273,0.018571226741172252
23,0.01716247052189098,0.01534660627953481,0.018916985787184037
23.1,0.017523417926795626,0.01572531824027755,0.019260934986012727
23.2,0.017884803097631217,0.01610259725346555,0.019606221979515025
23.3,0.018246587234835958,0.016480493235631152,0.019953239637386006
23.4,0.018608731213274925,0.016861428051216976,0.020298574337216917
23.5,0.01897119557619766,0.017240281393766148,0.02064575276165366
23.6,0.019333940529030584,0.01761739413187526,0.020992298130466512
23.7,0.019696925932998686,0.017995276185955665,0.021336957360249927
23.8,0.020060111298570067,0.018372742828890138,0.021689621508310393
23.9,0.020423455778716938,0.01875037661302543,0.022034006729080503
24,0.020786918161986485,0.019128915056484105,0.02238376754727913
24.1,0.021150456865374277,0.019507325171684665,0.02273289699889332
24.2,0.021514029926993108,0.019886982500522572,0.023083128140078256
24.3,0.021877594998529426,0.020263810226986118,0.023433053458625785
24.4,0.022241109337479206,0.02064165222781683,0.023784040051112933
24.5,0.02260452979915509,0.02101830597379179,0.02413367628199268
24.6,0.022967812828455562,0.02139838911480648,0.024484546798888365
24.7,0.023330914451387175,0.021772407581617286,0.02483385631885009
24.8,0.023693790266330034,0.0221477389879466,0.025186314750666263
24.9,0.02405639543503616,0.02252214410525135,0.025534850580898265
25,0.02441868467335035,0.022894173903331826,0.025886296515621018
25.1,0.024780612241641964,0.023267386539006157,0.026234818309357366
25.2,0.02514213193493607,0.02364097560995234,0.02658156140926689
25.3,0.02550319707273152,0.02402002141369284,0.02693190371465817
25.4,0.025863760488492746,0.02439239625202406,0.027281497995520907
25.5,0.026223774518801896,0.024767196088549957,0.02763302949246072
25.6,0.026583190992156586,0.02513914988586414,0.02798314580590842
25.7,0.026941961217398287,0.02551127158448949,0.028332069292244477
25.8,0.027300035971755374,0.025882107991434963,0.02867982947333121
25.9,0.027657365488483826,0.02625016133355471,0.029025146558350694
26,0.028013899444088136,0.026617929702816328,0.029372806549406126
26.1,0.028369586945103425,0.0269822875323043,0.02971964582617672
26.2,0.028724376514419225,0.02734645386582834,0.030063074195510926
26.3,0.029078216077124058,0.027712299765584876,0.030407581445895105
26.4,0.029431052945848645,0.02807903039127037,0.030748210032985612
26.5,0.02978283380558476,0.02844420731949133,0.031091039220966555
26.6,0.03013350469795484,0.028807354580116375,0.031432851814659525
26.7,0.030483011004906527,0.029168510561320932,0.03177496531045083
26.8,0.030831297431804513,0.029525862133717752,0.032115572969604565
26.9,0.031178307989890405,0.02988021080141449,0.032453983734708806
27,0.0315239859780799,0.03023590331835303,0.03279393554700279
27.1,0.031868273964064144,0.030590151701596225,0.03313120467216052
27.2,0.03221111376468069,0.03094354306562372,0.033464211788148554
27.3,0.03255244642551701,0.031293527725412,0.03380040934089209
27.4,0.032892212199707,0.03164100479763947,0.034131011441607045
27.5,0.03323035052587915,0.031989581964553114,0.03446202796703559
27.6,0.0335668000052114,0.032333390901317066,0.034790916358814
27.7,0.03390149837754555,0.03267792773472654,0.03511824026343834
27.8,0.03423438249651079,0.03302144846945826,0.0354457078253226
27.9,0.0345653883036022,0.03336036530495393,0.035771797712635174
28,0.03489445080115713,0.03369655364667081,0.03609512283882375
28.1,0.03522150402416771,0.034026908135350524,0.03641605393122422
28.2,0.0355464810108641,0.03436065454580794,0.03673523503566865
28.3,0.035869313771998146,0.0346908579004513,0.03705357747632074
28.4,0.0361899332587523,0.03501430828846608,0.037368240591604394
28.5,0.03650826932919317,0.03533749481748024,0.03768223301303308
28.6,0.036824250713183446,0.03565323241170136,0.03799741868570584
28.7,0.037137804975659126,0.03596885595391252,0.03830701639187853
28.8,0.03744885847817272,0.036279220762708286,0.03861599045053382
28.9,0.037757336338594835,0.03658404767884953,0.03892116747710056
