temp,mean,conf_lower,conf_upper
0,2.4118246671556296,2.1406225377954984,2.698333988431966
0.1,2.4134577895873974,2.1437436262653873,2.6986660059082888
0.2,2.4150684466171546,2.1465321472289274,2.6989833251717803
0.3,2.416656638244901,2.1492015940932907,2.699366462426652
0.4,2.418222364470637,2.151842437799494,2.6998782632380975
0.5,2.419765625294362,2.1544546783475367,2.70037423838391
0.6,2.421286420716076,2.1570383157374193,2.700853443558322
0.7,2.4227847507357794,2.1595933499691418,2.7013137388158523
0.8,2.4242606153534725,2.1623074896611074,2.7016851317203043
0.9,2.425714014569155,2.1650498950547727,2.701973053981429
1,2.4271449483828262,2.167761042810745,2.7022305793713928
1.1,2.428553416794487,2.170440932929025,2.7023648831809766
1.2,2.4299394198041373,2.173089565409612,2.7023444732408057
1.3,2.431302957411776,2.1757069402525064,2.7023771922806903
1.4,2.4326440296174052,2.178293057457709,2.7024845084619775
1.5,2.433962636421023,2.18079399447928,2.7024959887220197
1.6,2.4352587778226304,2.182992879958915,2.702494541812536
1.7,2.4365324538222275,2.185336416156398,2.70264557950281
1.8,2.437783664419813,2.1877270156268565,2.7026420774640796
1.9,2.4390124096153887,2.190086459678498,2.702795740117509
2,2.440218689408953,2.192415927339499,2.7030180131464956
2.1,2.4414025038005067,2.1947302833281435,2.7029370789897964
2.2,2.44256385279005,2.1970132809621488,2.702674108678255
2.3,2.443702736377582,2.1992649202415153,2.7025785953616177
2.4,2.444819154563104,2.2014852011662422,2.7024063354475985
2.5,2.445913107346615,2.2035140229035752,2.7024539330722344
2.6,2.4469845947281152,2.2053269497368775,2.702718955771234
2.7,2.448033616707605,2.2074971730502124,2.7028733123664503
2.8,2.449060173285084,2.2093829398167224,2.702919323313289
2.9,2.4500642644605524,2.2113504687317636,2.7029502120066553
3,2.4510458902340098,2.2137218358713624,2.702958829855529
3.1,2.4520050506054565,2.21590569776822,2.702939864449668
3.2,2.452941745574893,2.217548238582895,2.702905976942355
3.3,2.453855975142318,2.2191058074849064,2.702847959327321
3.4,2.454747739307733,2.2206370975833885,2.7028221077504386
3.5,2.455617038071137,2.2221421088783413,2.7027516853163647
3.6,2.4564638714325304,2.2236208413697645,2.702536988445208
3.7,2.457288239391913,2.225073295057659,2.702556718390009
3.8,2.4580901419492847,2.2264994699420235,2.7024508150340774
3.9,2.4588695791046464,2.2279033521863556,2.702312554287109
4,2.4596265508579966,2.229471515334527,2.7021647356833096
4.1,2.4603610572093366,2.231181604014368,2.7020063367658027
4.2,2.461073098158666,2.2322804621281556,2.7017745473796593
4.3,2.4617626737059846,2.2333559863100754,2.7017066924064173
4.4,2.4624297838512925,2.234539353838114,2.7019638603274183
4.5,2.463074428594589,2.235773525882905,2.7021402108573604
4.6,2.4636966079358755,2.237025208512121,2.7021832893446334
4.7,2.4642963218751515,2.238106847706176,2.7019392173595254
4.8,2.464873570412416,2.239421249067033,2.7022979398159968
4.9,2.4654283535476704,2.2405016947560905,2.701822904407212
5,2.4659606712809143,2.2419505233741894,2.7016437284011845
5.1,2.466470523612147,2.2431439297893214,2.7013679725630597
5.2,2.4669579105413693,2.2445157170056995,2.701169237542274
5.3,2.4674228320685803,2.245390114286998,2.7009497251510544
5.4,2.4678652881937815,2.245985705848356,2.7004235745863303
5.5,2.468285278916972,2.247548620823634,2.7003104931510657
5.6,2.468682804238151,2.2490343633597076,2.6998864619173304
5.7,2.46905786415732,2.249754818648082,2.699639742806349
5.8,2.4694104586744774,2.2506876189071665,2.6992584422253545
5.9,2.4697405877896252,2.2512637429290336,2.698990944877779
6,2.470048251502762,2.2520102685754004,2.6989359396758035
6.1,2.4703334498138876,2.2526385594511926,2.6985948971454037
6.2,2.4705961827230034,2.253244334055407,2.69843689425752
6.3,2.470836450230107,2.2540348580123766,2.698269253487585
6.4,2.4710542523352013,2.254590981552265,2.6981368569036075
6.5,2.471249589038284,2.25518504200833,2.6979274381846703
6.6,2.471422460339357,2.2558005167199817,2.697635477289608
6.7,2.471572866238419,2.2559421669481625,2.6976873407791215
6.8,2.471700806735469,2.2565723240434585,2.69782640628818
6.9,2.47180628183051,2.256840819410789,2.6975029302666043
7,2.4718892915235395,2.2570079998340544,2.6972962138989534
7.1,2.475155536387075,2.2621742647069607,2.698358246335688
7.2,2.4783768504465895,2.2674139309311223,2.699378291596776
7.3,2.4815532337020816,2.2723005244355226,2.7004202350055317
7.4,2.484684686153553,2.277348098907474,2.701238631367656
7.5,2.4877712078010035,2.2824235150242833,2.701609356474099
7.6,2.490812798644432,2.2876214055608806,2.7026559109540096
7.7,2.493809458683839,2.2927191261797564,2.703214182899531
7.8,2.4967611879192244,2.2977339237895236,2.7037323498842736
7.9,2.4996679863505893,2.3024612627310748,2.704278460068358
8,2.5025298539779324,2.307279708969771,2.705286228161576
8.1,2.505346790801254,2.3118019686404976,2.7062559012612786
8.2,2.508118796820554,2.316714441410097,2.707187479367467
8.3,2.5108458720358326,2.321511409664702,2.7079026345042374
8.4,2.51352801644709,2.3263232249680885,2.7088546295678593
8.5,2.5161652300543267,2.3309825444315644,2.709560871700239
8.6,2.5187575128575412,2.3358377876583676,2.709963791443662
8.7,2.5213048648567344,2.3404939585084312,2.710481639733753
8.8,2.523807286051906,2.344739123656754,2.7110373178829716
8.9,2.526264776443057,2.3490474976965396,2.7114720331426314
9,2.528677336030186,2.353014908502366,2.7119441101526416
9.1,2.5310449648132933,2.3573489896477655,2.712442430166992
9.2,2.53336766279238,2.3614421927343523,2.713000649643572
9.3,2.535645429967444,2.365481719466584,2.713688939663762
9.4,2.537878266338488,2.3694690091232626,2.7143701841632044
9.5,2.5400661719055098,2.373428460351579,2.7147342059292328
9.6,2.542209146668511,2.377279891824455,2.7153670851632485
9.7,2.54430719062749,2.3811146183058485,2.715875558427589
9.8,2.5463603037824476,2.3848999844417595,2.7162543657690956
9.9,2.548368486133384,2.3884215573522427,2.7167445409698896
10,2.5503317376802994,2.392002461038225,2.71750752372494
10.1,2.5522500584231933,2.3955317473680537,2.7183187093326016
10.2,2.5541234483620654,2.399009416341729,2.718723605589399
10.3,2.555951907496916,2.40234342806007,2.719043872986555
10.4,2.5577354358277455,2.40529899355783,2.719052094960843
10.5,2.559474033354554,2.4081957434945234,2.7192489005251534
10.6,2.5611677000773403,2.4109180153176926,2.719472597682924
10.7,2.5628164359961056,2.413917795006474,2.719674003287694
10.8,2.5644202411108497,2.4166890295015717,2.7196184778566073
10.9,2.5659791154215723,2.4194253812366417,2.7196589595004568
11,2.5674930589282736,2.422048873749124,2.719892246824558
11.1,2.5689620716309536,2.424705734597195,2.7197636134690795
11.2,2.5703861535296118,2.427230830747108,2.7198343758232166
11.3,2.5717653046242486,2.4297483154951465,2.7198613277671324
11.4,2.573099524914864,2.432520510134041,2.719468631201874
11.5,2.574388814401458,2.435125158869911,2.719102504182376
11.6,2.575633173084031,2.4377972149675067,2.7186720554054493
11.7,2.5768326009625824,2.4405849402403303,2.7180250133639
11.8,2.577987098037112,2.4430137985338334,2.7173139613019326
11.9,2.579096664307621,2.4456292958081,2.71690921586296
12,2.580161299774108,2.4482725374127723,2.7165444486662302
12.1,2.5811810044365737,2.450866199366471,2.716387354361008
12.2,2.5821557782950184,2.4534140322265023,2.7159983275602384
12.3,2.5830856213494413,2.455892857592188,2.7158501369462025
12.4,2.583970533599843,2.458263107361017,2.7156571505071456
12.5,2.584810515046223,2.4607147512337404,2.715162020926285
12.6,2.5856055656885824,2.463128947503443,2.714596754662038
12.7,2.5863556855269194,2.465385646795164,2.713878554167797
12.8,2.5870608745612356,2.4673815816297586,2.7131118344049234
12.9,2.58772113279153,2.469651923263094,2.712497469207672
13,2.5883364602178034,2.471707508234448,2.7118248571907144
13.1,2.5889068568400555,2.4737391760260308,2.7108335691414904
13.2,2.5894323226582854,2.4754236566510066,2.7100618165592234
13.3,2.589912857672495,2.477023064454169,2.7094491781787537
13.4,2.590348461882682,2.4785427167928606,2.708574424182781
13.5,2.5907391352888487,2.4799775261542907,2.707624116220713
13.6,2.591084877890993,2.481520498373838,2.7066145674070423
13.7,2.591385689689117,2.4832932669169345,2.705560229384557
13.8,2.591641570683219,2.485017556890247,2.7044611021532567
13.9,2.5918525208732994,2.4866947935416297,2.7032249480491757
14,2.5920185402593585,2.488339576661849,2.7021352623558004
14.1,2.592139628841397,2.4898969579451737,2.700933798513151
14.2,2.5922157866194135,2.4911238270238236,2.699677162496484
14.3,2.5922470135934086,2.4922171580251877,2.6985044138807037
14.4,2.5922333097633823,2.493265959899204,2.697549707616771
14.5,2.592174675129334,2.4942702326458712,2.696550538366478
14.6,2.592071109691265,2.495229976265189,2.6955059618240558
14.7,2.591922613449175,2.496146628100479,2.6944138380440243
14.8,2.5917291864030627,2.497219336864708,2.693201959562611
14.9,2.5914908285529297,2.4982708889688094,2.6918764969441695
15,2.591207539898775,2.4992863800774217,2.6904371551582007
15.1,2.5908793204405987,2.500058511082176,2.68880697807858
15.2,2.5905061701784016,2.500736445994275,2.6869886288705245
15.3,2.5900880891121822,2.5017099492415653,2.685192563620028
15.4,2.5896250772419425,2.5024951615244424,2.6834272355804476
15.5,2.5891171345676804,2.5030653365026554,2.6815025980131835
15.6,2.588564261089397,2.503318854459401,2.6795157874440463
15.7,2.5879664568070933,2.5037024176544627,2.6776496652436315
15.8,2.587323721720767,2.504118438642969,2.6755970384185437
15.9,2.5866360558304202,2.504492658694884,2.673672664257815
16,2.5859034591360515,2.50494717687428,2.671816362625031
16.1,2.5851259316376614,2.5054507297916917,2.6697296172967655
16.2,2.5843034733352503,2.505912112707091,2.6674216117417457
16.3,2.583436084228817,2.506325468273488,2.6652151447666483
16.4,2.5825237643183634,2.5064637767275313,2.6629892475106987
16.5,2.5815665136038874,2.5064147756191213,2.6609149807985673
16.6,2.58056433208539,2.5064285747568014,2.659028859447893
16.7,2.5795172197628724,2.5066045415388962,2.656999903740398
16.8,2.5784251766363324,2.5063676487459263,2.6548667605183507
16.9,2.577288202705771,2.5061950674919213,2.652836596240437
17,2.5761062979711884,2.5064291673894603,2.6506774695959274
17.1,2.5748794624325844,2.506518007145992,2.6485512302853387
17.2,2.57360769608996,2.5058969816358925,2.6463059257025785
17.3,2.5722909989433123,2.5051946465934742,2.6439394528747084
17.4,2.570929370992644,2.5044902905087243,2.6416960409956074
17.5,2.5695228122379548,2.5037470225438234,2.639318467029442
17.6,2.568071322679244,2.5030801283438135,2.6367330351298404
17.7,2.5665749023165114,2.502450090043753,2.6343438070135505
17.8,2.5650335511497575,2.5017713874237733,2.6321017275946827
17.9,2.563447269178983,2.5010362008995495,2.6292007904795778
18,2.561816056404186,2.500450150726748,2.626545731972511
18.1,2.5601399128253677,2.5000027617326284,2.623756645209098
18.2,2.5584188384425293,2.4986765852995965,2.620799058028646
18.3,2.556652833255668,2.4972112751602067,2.617993329925628
18.4,2.554841897264786,2.4958348519633766,2.6155131016577267
18.5,2.5529860304698824,2.4944961156140453,2.6131578753356317
18.6,2.5510852328709577,2.493503973718466,2.6104094253653995
18.7,2.5491395044680116,2.492242983447869,2.607377071145618
18.8,2.5471488452610433,2.491010298674655,2.6050899912349856
18.9,2.5451132552500546,2.489608109391453,2.6021722004166343
19,2.543032734435044,2.488667157386274,2.599329145297504
19.1,2.540907282816012,2.487410747483075,2.5962140127684084
19.2,2.5387369003929594,2.4864144513428315,2.5934024418431494
19.3,2.536521587165884,2.484764439922775,2.5904436689441424
19.4,2.5342613431347885,2.4826686374812175,2.5870447974391357
19.5,2.531956168299671,2.4816654062663543,2.584163347727184
19.6,2.5296060626605317,2.4807250728009267,2.581021347613061
19.7,2.5272110262173717,2.478773025080357,2.577840573201674
19.8,2.5247710589701895,2.4768988503968448,2.574605685595756
19.9,2.5222861609189873,2.4746485870061257,2.5714625865461453
20,2.5197563320637624,2.4725493984667013,2.568514576247603
20.1,2.5171815724045166,2.470324367404519,2.5654210044522667
20.2,2.51456188194125,2.4681241026868803,2.5623268147457767
20.3,2.51189726067396,2.4660129917109135,2.5592837369974273
20.4,2.509187708602651,2.463863216022352,2.5562295445698284
20.5,2.5064332257273194,2.461445804050613,2.5529315462079882
20.6,2.5036338120479664,2.4592450635596435,2.5494175218288246
20.7,2.5007894675645925,2.4565040949841284,2.5464713051238457
20.8,2.4979001922771964,2.4541410457932025,2.543755928314506
20.9,2.49496598618578,2.4513567143393944,2.5405563254033012
21,2.4919868492903414,2.4484629949605874,2.5373124974513512
21.1,2.4889627815908817,2.445529278259343,2.5340974035637602
21.2,2.485893783087401,2.4427167396726586,2.5307950859749893
21.3,2.4827798537798973,2.4393735213509338,2.527448902531317
21.4,2.479620993668374,2.4364307109102503,2.5238092355691046
21.5,2.4764172027528284,2.433283378283055,2.519773217548563
21.6,2.4731684810332615,2.4300451121472433,2.516572250288341
21.7,2.469874828509674,2.426937394227985,2.5127280721041307
21.8,2.4665362451820636,2.4236417070537133,2.5088373383559457
21.9,2.4631527310504335,2.4202851367324523,2.504646326328217
22,2.4597242861147812,2.416671444003503,2.501394451852385
22.1,2.456250910375107,2.4128776759697264,2.4978728392781284
22.2,2.4527326038314126,2.409308133697887,2.494594108249549
22.3,2.4491693664836953,2.40574159941203,2.4912591660654484
22.4,2.4455611983319576,2.4023609585232495,2.4882411520670757
22.5,2.4419080993761986,2.398451239615095,2.4848596897619797
22.6,2.4382100696164177,2.394832155942201,2.481260310137242
22.7,2.4344671090526155,2.3911108036273294,2.477516975023683
22.8,2.4306792176847916,2.3869905917106697,2.474250743188999
22.9,2.426846395512947,2.3829613988478555,2.4707166299505747
23,2.422968642537081,2.3790473886849703,2.4673283461095687
23.1,2.4190459587571933,2.3749100860191312,2.4639655940964342
23.2,2.4150783441732844,2.370694751180484,2.4603945380797416
23.3,2.411065798785353,2.3661931424645957,2.4573202520303337
23.4,2.4070083225934016,2.3618655914845705,2.454203093077952
23.5,2.4029059155974286,2.3573383796661647,2.4503566117860256
23.6,2.398758577797434,2.3527812485240025,2.4467324201140377
23.7,2.394566309193418,2.3480820113847845,2.442996105701801
23.8,2.39032910978538,2.3435852045649384,2.439266778844609
23.9,2.3860469795733215,2.338778373493513,2.4359022616676764
24,2.3817199185572413,2.3339429285248494,2.432389116949012
24.1,2.37734792673714,2.328618404233641,2.4293562028908395
24.2,2.3729310041130165,2.3235199984716512,2.4257189180989576
24.3,2.368469150684872,2.3181568700236834,2.4216662877993773
24.4,2.3639623664527063,2.3127728852296996,2.4172481048345196
24.5,2.3594106514165194,2.3074520148445794,2.413734546585119
24.6,2.3548140055763103,2.301967350013128,2.410274717503728
24.7,2.3501724289320807,2.2969129787450857,2.4063734810221957
24.8,2.345485921483829,2.2914651886516486,2.4020382265928775
24.9,2.340754483231556,2.2859810989741343,2.397727646162732
25,2.335978114175262,2.280603766740502,2.3937116534304277
25.1,2.3311568143149466,2.274924330165373,2.389634611369142
25.2,2.3262905836506094,2.269198268164105,2.38571455258837
25.3,2.3213794221822512,2.263495953271345,2.3818574127148384
25.4,2.3164233299098713,2.2576795895591983,2.3776631517071296
25.5,2.31142230683347,2.251537534065264,2.3735759740015077
25.6,2.3063763529530474,2.2454642381671506,2.369092901596956
25.7,2.3012854682686035,2.2394901811705346,2.36468988802767
25.8,2.296149652780138,2.2330656819449257,2.3601324979168004
25.9,2.2909689064876515,2.2268300142209694,2.3557429450739344
26,2.2857432293911435,2.220627663141353,2.3513350975147964
26.1,2.2804726214906137,2.2143044056189183,2.3471213485554427
26.2,2.275157082786063,2.207886321857412,2.3426731880532405
26.3,2.2697966132774905,2.2015071427461543,2.3384633846904697
26.4,2.264391212964897,2.1949207851484065,2.334186755611607
26.5,2.2589408818482815,2.1884529243188355,2.329490960711411
26.6,2.2534456199276454,2.1822289875213174,2.324919359603707
26.7,2.247905427202987,2.1758867569643794,2.3203007320617584
26.8,2.242320303674308,2.169083241420276,2.315607107575506
26.9,2.236690249341607,2.1626786067619466,2.3109316967884905
27,2.231015264204885,2.1558404654861394,2.306179640937641
27.1,2.2252953482641415,2.14909227425333,2.301099974432149
27.2,2.219530501519377,2.1422957646766743,2.296249547213048
27.3,2.2137207239705905,2.1354785979266926,2.2915929931459256
27.4,2.2078660156177827,2.128639925309243,2.286672191431035
27.5,2.2019663764609536,2.1217154957539277,2.2816080873089963
27.6,2.196021806500103,2.1147298810887323,2.2766046421755304
27.7,2.1900323057352313,2.1077034746021748,2.2717372097042157
27.8,2.183997874166338,2.100631996030154,2.2668303130136502
27.9,2.177918511793423,2.0936033038470345,2.2618003340822943
28,2.1717942186164874,2.0863811983198968,2.256847910525985
28.1,2.16562499463553,2.0789856966613236,2.2514843715815682
28.2,2.159410839850551,2.071555785472607,2.246134289751737
28.3,2.153151754261551,2.064080068483507,2.2408396462713784
28.4,2.146847737868529,2.0565648631589624,2.235619119737119
28.5,2.140498790671486,2.049250135650545,2.2303546940329575
28.6,2.1341049126704217,2.0413915114689996,2.225042724982583
28.7,2.127666103865336,2.033732467113988,2.21992145794666
28.8,2.121182364256229,2.026342575195536,2.2149533106554844
28.9,2.1146536938431004,2.018652809468067,2.2099430582645114
29,2.1080800926259498,2.010873813867824,2.2048373319710746
29.1,2.1014615606047786,2.0028520363951015,2.1992865318160373
29.2,2.094798097779586,1.9947375081628929,2.1936478795390277
29.3,2.088089704150372,1.9869219936538474,2.187944096719933
29.4,2.0813363797171363,1.9789188337913388,2.182180401224983
29.5,2.0745381244798793,1.9707552047810561,2.176426307975789
29.6,2.0676949384386005,1.9625463582645004,2.170750541408739
29.7,2.0608068215933013,1.9542922942416712,2.1649419595803696
29.8,2.05387377394398,1.9459930127125702,2.159021315311885
29.9,2.0468957954906375,1.9376524736389533,2.1532794441611385
30,2.0398728862332733,1.9293915970567157,2.1475240719257767
30.1,2.032805046171888,1.9211642548581094,2.1418284999436166
30.2,2.025692275306481,1.9128954889853882,2.136080740652542
30.3,2.0185345736370532,1.904579442091562,2.130245931699337
30.4,2.0113319411636037,1.8960199282474193,2.1244108653118894
30.5,2.004084377886133,1.8874463841258668,2.118494028715895
30.6,1.9967918838046401,1.8790854377537285,2.1125113280797914
30.7,1.9894544589191265,1.870447866686289,2.10625771528954
30.8,1.9820721032295916,1.861650398593266,2.0999938230844855
30.9,1.974644816736035,1.852838097608048,2.094006420548507
31,1.967172599438457,1.8440039382856859,2.087942263029681
31.1,1.9596554513368574,1.8351327008658975,2.081923782668842
31.2,1.952093372431237,1.8260503375056505,2.075782486787374
31.3,1.944486362721595,1.8169781252354484,2.069525085697765
31.4,1.9368344222079314,1.808047360100894,2.063344471600154
31.5,1.9291375508902466,1.798911888346205,2.057060158354052
31.6,1.92139574876854,1.789939757515119,2.0506685846333212
31.7,1.9136090158428125,1.7809426403229893,2.0441048988298838
31.8,1.9057773521130636,1.771892443884014,2.0377985423849183
31.9,1.8979007575792932,1.7627773624503718,2.0308502329950695
32,1.889979232241501,1.7536116673561657,2.0241419074304057
32.1,1.8820127760996876,1.7440044138260986,2.01729468128342
32.2,1.8740013891538532,1.7346300761369402,2.0103368925483496
32.3,1.8659450714039973,1.725171588376336,2.0035305019527536
32.4,1.85784382285012,1.715626892146463,1.99678369344335
32.5,1.8496976434922208,1.7059082255298883,1.99022983055792
32.6,1.8415065333303005,1.696344838910747,1.9834031423541307
32.7,1.833270492364359,1.6869032282094316,1.9765668266602798
32.8,1.824989520594396,1.6771184442869729,1.9698601171211076
32.9,1.8166636180204117,1.667348628511868,1.9633435808265798
33,1.808292784642406,1.6576409150343077,1.9565930471156237
33.1,1.7998770204603785,1.647857195177424,1.9496541421139084
