temp,mean,conf_lower,conf_upper
0,0.9204034548051936,0.8098377931081514,1.0219269953207946
0.1,0.9214393935468896,0.8114405041294751,1.0225400659284176
0.2,0.9224666027953186,0.8130198191497002,1.023196128307239
0.3,0.9234850825504801,0.8144301856248631,1.0238457505755467
0.4,0.9244948328123741,0.8158293690948395,1.0244889327333404
0.5,0.9254958535810007,0.8173121520085989,1.025145588917392
0.6,0.92648814485636,0.8188675949438012,1.0257971676780815
0.7,0.9274717066384519,0.8204102234140788,1.0264037746274688
0.8,0.9284465389272765,0.8219400374194317,1.0270031175719958
0.9,0.9294126417228337,0.8234570369598596,1.0275354236931609
1,0.9303700150251235,0.8249612220353628,1.0280240308206812
1.1,0.9313186588341458,0.8264484331591055,1.0285043203873823
1.2,0.9322585731499011,0.827857345918688,1.0289615097341434
1.3,0.9331897579723887,0.8292546440020876,1.0294265054023906
1.4,0.9341122133016091,0.8306403274093042,1.029909173243778
1.5,0.9350259391375619,0.8320143961403377,1.0303811909017953
1.6,0.9359309354802474,0.8333768501951884,1.0308381122774284
1.7,0.9368272023296658,0.834727689573856,1.0312896302349501
1.8,0.9377147396858165,0.8360669142763408,1.0317357447743603
1.9,0.9385935475487002,0.8374030537339812,1.0322397641830465
2,0.9394636259183162,0.8387479917019915,1.0326883234326716
2.1,0.9403249747946649,0.8400808136933133,1.033130173529016
2.2,0.9411775941777463,0.8414015197079467,1.033569228550334
2.3,0.9420214840675603,0.8426203452003214,1.034008594396798
2.4,0.9428566444641069,0.8437977112156967,1.0345288789193767
2.5,0.9436830753673862,0.8449646334035243,1.035042612885064
2.6,0.9445007767773979,0.8461155264848512,1.035549796293861
2.7,0.9453097486941426,0.8472562546626115,1.0360431215543782
2.8,0.9461099911176196,0.8483859093877415,1.0365265118302942
2.9,0.9469015040478295,0.849504490660242,1.0368900589589825
3,0.9476842874847717,0.8506124150265746,1.0372567784691715
3.1,0.9484583414284469,0.8517152132189676,1.0376707292858045
3.2,0.9492236658788544,0.8528068775268274,1.038003813098304
3.3,0.9499802608359948,0.853945472868179,1.0384631189180562
3.4,0.9507281262998677,0.8550934894584119,1.0389118588408786
3.5,0.9514672622704732,0.8561508667918705,1.0393536509270649
3.6,0.9521976687478113,0.8571731626840731,1.0397884951766159
3.7,0.9529193457318823,0.8582909742772609,1.0401948263865453
3.8,0.9536322932226855,0.8594406100073186,1.040545010556883
3.9,0.9543365112202218,0.860538050249338,1.0408889610025516
4,0.9550319997244903,0.8616444986828431,1.0412269521583761
4.1,0.9557187587354916,0.8626338749434987,1.041570575880694
4.2,0.9563967882532256,0.8636110277481266,1.0420247190224425
4.3,0.957066088277692,0.8645785536346711,1.0423296883355215
4.4,0.9577266588088913,0.8655424803961078,1.0427339690018311
4.5,0.9583784998468232,0.8664948498746385,1.0431501650796333
4.6,0.9590216113914876,0.8673807142827366,1.0435541123799903
4.7,0.9596559934428848,0.8681734525043581,1.0439674935682204
4.8,0.9602816460010144,0.8691643303612253,1.0443667023854193
4.9,0.9608985690658769,0.8700725230663153,1.0447533688533972
5,0.9615067626374716,0.870837225855015,1.0451317027736389
5.1,0.9621062267157992,0.8716454804828668,1.0455025345091227
5.2,0.9626969613008596,0.8724481483159008,1.0458534359488916
5.3,0.9632789663926524,0.8732548319964653,1.0461727844225395
5.4,0.9638522419911779,0.874025008003239,1.0464854304024074
5.5,0.964416788096436,0.8748119283936346,1.0467305152586248
5.6,0.9649726047084266,0.8756781905842033,1.0470516011013247
5.7,0.9655196918271503,0.876641520224797,1.0473857217169196
5.8,0.9660580494526061,0.8774061618925384,1.047792639390842
5.9,0.9665876775847948,0.8782763242550735,1.048155352535142
6,0.9671085762237159,0.8790947785332093,1.0484575732447592
6.1,0.9676207453693697,0.8798173643787921,1.0487349518439668
6.2,0.9681241850217566,0.8805222687713952,1.0490714717724874
6.3,0.9686188951808754,0.8812140928643399,1.0494729459161234
6.4,0.9691048758467273,0.8820065651180873,1.049785145075672
6.5,0.9695821270193117,0.8826293876586466,1.0500289585096254
6.6,0.9700506486986287,0.8832233154308611,1.050411286070483
6.7,0.9705104408846785,0.883842371993836,1.0506795910164695
6.8,0.9709615035774606,0.8843438499194942,1.0511446362929338
6.9,0.9714038367769757,0.8848412549991778,1.051436814565922
7,0.9718374404832231,0.8854096083594247,1.0518575200164462
7.1,0.9739093179666154,0.8884738698164322,1.0530888351038965
7.2,0.975963736463473,0.8914204830656949,1.0542600312766557
7.3,0.9780006959737958,0.8943811535300545,1.0555084926389617
7.4,0.9800201964975841,0.8973742637825999,1.056671920218389
7.5,0.9820222380348372,0.9001887168978187,1.0578722013754605
7.6,0.9840068205855559,0.9030738412517952,1.0590503318375701
7.7,0.9859739441497397,0.9059742178333436,1.0602250560949749
7.8,0.9879236087273888,0.908852516224208,1.0614063048934352
7.9,0.9898558143185032,0.9115029581525703,1.0625878505722428
8,0.9917705609230829,0.9141722949530746,1.0637181248365326
8.1,0.9936678485411278,0.9168504919619156,1.0648879216599663
8.2,0.9955476771726379,0.9195821519068168,1.0660856687494273
8.3,0.9974100468176132,0.9223200097616431,1.0672675805927234
8.4,0.9992549574760541,0.9249274513899199,1.0684023613915516
8.5,1.0010824091479598,0.9274948365621931,1.0695985205780432
8.6,1.002892401833331,0.9299586451494848,1.070603046410881
8.7,1.0046849355321674,0.9325707782760113,1.071657688003076
8.8,1.0064600102444692,0.9350471099897831,1.0727274686808703
8.9,1.0082176259702362,0.9374927303896365,1.0737140954835156
9,1.0099577827094683,0.9399114196391383,1.0748574355529645
9.1,1.0116804804621657,0.9422839991695278,1.075972562361829
9.2,1.0133857192283284,0.9446291169936246,1.0770545914793144
9.3,1.0150734990079564,0.9469459592037892,1.0781509635242854
9.4,1.0167438198010497,0.9492621129968157,1.0792489388036177
9.5,1.0183966816076082,0.9514516881025188,1.0803538139619586
9.6,1.020032084427632,0.9536062708099123,1.081402333166226
9.7,1.021650028261121,0.9558119998387451,1.0824642632556105
9.8,1.0232505131080751,0.9579824484690471,1.0834713886056009
9.9,1.0248335389684946,0.9601129701201654,1.0844117333198176
10,1.0263991058423796,0.9623515037419084,1.0853357699145956
10.1,1.0279472137297294,0.9644687624265793,1.0863054439641266
10.2,1.029477862630545,0.9665351882821112,1.0873633719951217
10.3,1.0309910525448254,0.9685446178965009,1.0884041607798052
10.4,1.0324867834725713,0.9705420440810028,1.0893306600291954
10.5,1.0339650554137823,0.9725678779405742,1.0902617964251613
10.6,1.0354258683684587,0.9745874316888723,1.091134067782237
10.7,1.0368692223366,0.9766155316682431,1.0919942079496976
10.8,1.0382951173182071,0.9786111081106954,1.0929280424139587
10.9,1.039703553313279,0.9805944584054442,1.0937410768548355
11,1.0410945303218166,0.9825951614975681,1.0945933354995863
11.1,1.0424680483438191,0.9844443945528623,1.095449633751433
11.2,1.043824107379287,0.9863123567889263,1.0962357719497267
11.3,1.0451627074282202,0.988113375512299,1.0970109537072918
11.4,1.0464838484906185,0.9899452848307704,1.097913481246392
11.5,1.0477875305664823,0.9917226870763716,1.0987288204872234
11.6,1.049073753655811,0.9934760078049053,1.099555967203882
11.7,1.0503425177586054,0.9952204164218398,1.1003345738162593
11.8,1.0515938228748647,0.9968828494698592,1.1010989786230754
11.9,1.0528276690045895,0.9985055247079866,1.1018769652648563
12,1.0540440561477795,1.0001281138064169,1.1026068028904807
12.1,1.0552429843044344,1.0018302338995753,1.1032537196200467
12.2,1.0564244534745548,1.003641863557537,1.1039795788129727
12.3,1.0575884636581407,1.0052666073260599,1.1046083913819613
12.4,1.0587350148551917,1.0068770820322697,1.1051801141044995
12.5,1.059864107065708,1.0084998187701035,1.105902063010149
12.6,1.060975740289689,1.010153228558087,1.1065815621963155
12.7,1.0620699145271362,1.011788859624537,1.1072792643653968
12.8,1.063146629778048,1.0134075972830445,1.1078731842925507
12.9,1.0642058860424255,1.0150586012590093,1.1084831808849613
13,1.065247683320268,1.0167384153894827,1.1090309434089236
13.1,1.0662720216115755,1.0183986088181138,1.1095788302887002
13.2,1.0672789009163486,1.0200391815449037,1.1100884341843542
13.3,1.068268321234587,1.0216086873715375,1.1106195571120507
13.4,1.0692402825662906,1.0229311279491187,1.1111401325619952
13.5,1.0701947849114593,1.0242379280846488,1.1116314553108773
13.6,1.0711318282700932,1.0255824582790658,1.1120993573196292
13.7,1.0720514126421927,1.0269645438659687,1.1125497995145848
13.8,1.0729535380277573,1.0283667814304525,1.1129823921666644
13.9,1.0738382044267873,1.0298170098450747,1.1133964648998669
14,1.0747054118392823,1.0312181860511749,1.1137838489985916
14.1,1.0755551602652424,1.0326433022632426,1.114166286945887
14.2,1.0763874497046684,1.0340504607327536,1.114669537692509
14.3,1.0772022801575591,1.0352640241260924,1.1150876934714602
14.4,1.0779996516239152,1.036487153172068,1.115560508385546
14.5,1.0787795641037365,1.037746156679245,1.116063768948583
14.6,1.0795420175970232,1.03902883981921,1.1164960248914335
14.7,1.080287012103775,1.0402955662055233,1.1168719227572925
14.8,1.081014547623992,1.0415438378599688,1.1172247473103818
14.9,1.0817246241576748,1.0428333441992117,1.1174992344295362
15,1.0824172417048223,1.044119537862614,1.117718721944474
15.1,1.0830924002654352,1.0453815568443692,1.1179185912880203
15.2,1.0837500998395135,1.0465580767320768,1.118093488014595
15.3,1.0843903404270567,1.0477165082859254,1.1182842694365984
15.4,1.0850131220280657,1.0488569084763744,1.1184566673194256
15.5,1.0856184446425396,1.049978510853856,1.1186186369601585
15.6,1.0862063082704787,1.0510231731687805,1.1187652098682705
15.7,1.0867767129118833,1.0520341382551783,1.1189269246538187
15.8,1.087329658566753,1.053015582295997,1.1190391600958207
15.9,1.0878651452350878,1.053968884576254,1.1191940849845199
16,1.0883831729168882,1.054922672227995,1.1192794356545412
16.1,1.0888837416121535,1.055856030764161,1.1193449788328615
16.2,1.0893668513208845,1.0567689601847525,1.1193958446245031
16.3,1.0898325020430804,1.057571695944199,1.119434062460865
16.4,1.0902806937787417,1.0584204552889824,1.1195464478343724
16.5,1.0907114265278683,1.0592718762566316,1.1196483234147026
16.6,1.09112470029046,1.0600305691681502,1.119765262448173
16.7,1.0915205150665173,1.0607821284440704,1.1198108799369875
16.8,1.0918988708560393,1.0615425142071895,1.1198428838637438
16.9,1.092259767659027,1.0622883258262648,1.1197459335117823
17,1.09260320547548,1.0630179666985615,1.1196357950630094
17.1,1.0929291843053979,1.0637079782542842,1.1195606846123511
17.2,1.0932377041487813,1.0643530678121071,1.1193593862998465
17.3,1.09352876500563,1.0651494884087604,1.1193079350422808
17.4,1.0938023668759438,1.065925146387403,1.1192326082434967
17.5,1.0940585097597229,1.0665766456989494,1.1191416144878956
17.6,1.094297193656967,1.0671706682382665,1.119051340158966
17.7,1.094518418567677,1.0678805359780505,1.118910401669734
17.8,1.0947221844918518,1.0686091201919916,1.1187468535476226
17.9,1.094908491429492,1.0692799938866446,1.1185617511816894
18,1.0950773393805973,1.069954360741534,1.1182627718034857
18.1,1.0952287283451678,1.070532313133099,1.1180768811714275
18.2,1.095362658323204,1.0711080392100905,1.117911454542316
18.3,1.095479129314705,1.0715751003623528,1.1175655441526842
18.4,1.0955781413196717,1.0720331849523388,1.117373741491284
18.5,1.0956596943381034,1.0724498036202408,1.1172374935797857
18.6,1.09572378837,1.0727516424779233,1.1169909725518505
18.7,1.0957704234153622,1.0729863304444556,1.116731105363344
18.8,1.0957995994741898,1.0735027588017139,1.116446980395672
18.9,1.0958113165464827,1.0739099619727661,1.1161607782084304
19,1.0958055746322404,1.0740479473494151,1.1158576306828831
19.1,1.0957823737314636,1.0741907771476997,1.115573236986263
19.2,1.0957417138441525,1.0744595588636967,1.1152640204770963
19.3,1.095683594970306,1.0746148663651973,1.1149099718316475
19.4,1.095608017109925,1.0747349328431643,1.1145184723183275
19.5,1.0955149802630093,1.0749569599498086,1.1140969727685555
19.6,1.0954044844295587,1.075241488018998,1.1136940486160554
19.7,1.0952765296095737,1.075456467600803,1.113336201323774
19.8,1.0951311158030537,1.0754637355829058,1.1130265263918029
19.9,1.094968243009999,1.0756211978628751,1.1127231391562322
20,1.0947879112304095,1.0757647400937782,1.11226157982978
20.1,1.0945901204642852,1.0758622451847315,1.1118216118871433
20.2,1.0943748707116265,1.0759568126937835,1.1113846161235448
20.3,1.0941421619724325,1.0759245761355056,1.1109985054545455
20.4,1.0938919942467045,1.076087019220631,1.1105516820475518
20.5,1.0936243675344413,1.0759225506927979,1.1100305591942854
20.6,1.093339281835643,1.0757240717928436,1.1095910237450073
20.7,1.0930367371503107,1.0755525630141076,1.1090630749459667
20.8,1.0927167334784433,1.0754019050485275,1.1087247043368196
20.9,1.0923792708200413,1.075056531246118,1.1082454881586856
21,1.0920243491751043,1.0747721919466466,1.1078856502667127
21.1,1.0916519685436326,1.0745454201196327,1.1074411494701635
21.2,1.0912621289256266,1.0743133209971825,1.1069231167705202
21.3,1.0908548303210852,1.0741602853141314,1.1064411773862854
21.4,1.0904300727300096,1.0738697826151045,1.1057974562637969
21.5,1.0899878561523988,1.073438647705557,1.1053447800743421
21.6,1.0895281805882535,1.073063555525933,1.1047958563923448
21.7,1.0890510460375735,1.0728342865020166,1.1042631237835558
21.8,1.0885564525003586,1.0724379065102658,1.1037399185667753
21.9,1.0880443999766092,1.071863372209801,1.103210104691206
22,1.087514888466325,1.0712293039929373,1.10262258783467
22.1,1.0869679179695058,1.070615403487547,1.1019826188669612
22.2,1.0864034884861522,1.0700652530745969,1.101389427340596
22.3,1.0858216000162635,1.0695853602953036,1.100812798233973
22.4,1.0852222525598405,1.0690113999669524,1.1002608023148484
22.5,1.0846054461168824,1.0683826130939966,1.0999083505452116
22.6,1.0839711806873895,1.0676023182948677,1.0992317684416686
22.7,1.0833194562713622,1.0670665383210634,1.098670694973885
22.8,1.0826502728687997,1.0661797745572454,1.0980744926852335
22.9,1.0819636304797031,1.0653033446940805,1.0973308341654797
23,1.0812595291040714,1.0644106007172387,1.0967390662570589
23.1,1.0805379687419046,1.063463870268673,1.0960079343278994
23.2,1.0797989493932036,1.0623928091121462,1.095436968080563
23.3,1.0790424710579676,1.0615205224811552,1.0947561494873734
23.4,1.078268533736197,1.0605832548765832,1.0940132592264837
23.5,1.0774771374278918,1.0595967597328477,1.0934494668067853
23.6,1.0766682821330513,1.0585325608397378,1.0927775532765174
23.7,1.0758419678516766,1.0574641581739077,1.0921738746289131
23.8,1.0749981945837668,1.0563773285997466,1.0915184888179443
23.9,1.0741369623293224,1.0552998965804163,1.0907454789825977
24,1.0732582710883434,1.0542415494267408,1.0899987271633225
24.1,1.0723621208608294,1.0530347049683735,1.0892545027821474
24.2,1.071448511646781,1.0518085313986674,1.0885974976067112
24.3,1.0705174434461975,1.050558649917217,1.0879262791307163
24.4,1.0695689162590793,1.049294090361721,1.0872229109783178
24.5,1.0686029300854267,1.0480333197540699,1.0866211671555468
24.6,1.067619484925239,1.0468375837230892,1.085814191200459
24.7,1.0666185807785167,1.0455746511932686,1.0849930168057322
24.8,1.0656002176452595,1.044309009863268,1.0843081768966591
24.9,1.0645643955254678,1.0431608268548123,1.0835889848569615
25,1.0635111144191414,1.04181245992152,1.0828392168585357
25.1,1.0624403743262798,1.0404158659594367,1.0821341692137318
25.2,1.061352175246884,1.0390567518424696,1.0813650472897263
25.3,1.060246517180953,1.037528423913941,1.080584175085527
25.4,1.0591234001284875,1.0360984122718961,1.0798545016532266
25.5,1.0579828240894873,1.0346110422816082,1.0790379030834427
25.6,1.0568247890639522,1.0330038501979464,1.0782129888999568
25.7,1.0556492950518828,1.0314425092898893,1.0773355347482623
25.8,1.0544563420532782,1.0299618521533336,1.0765203185315544
25.9,1.053245930068139,1.0284686385815722,1.0757267984593177
26,1.052018059096465,1.0267658533579205,1.0748257910525907
26.1,1.050772729138256,1.025007990416069,1.0737977213756187
26.2,1.0495099401935126,1.0232928135265993,1.073014702844943
26.3,1.0482296922622345,1.0214863101472829,1.072202825560612
26.4,1.0469319853444214,1.019785053873847,1.0713526265538396
26.5,1.045616819440074,1.0181411489436722,1.0704001036562407
26.6,1.0442841945491912,1.016527748654199,1.0693967907515054
26.7,1.0429341106717742,1.0148971341187834,1.0685735487755055
26.8,1.0415665678078223,1.0132219873987092,1.0675791252956222
26.9,1.0401815659573357,1.0115290693228522,1.066570440505714
27,1.0387791051203143,1.0098767605112078,1.0654994295199103
27.1,1.037359185296758,1.0081777734459887,1.0644075564108162
27.2,1.0359218064866673,1.006336866288983,1.063368228485332
27.3,1.0344669686900416,1.0044343641711486,1.0623678086296309
27.4,1.0329946719068812,1.002446362796705,1.0613671379477572
27.5,1.0315049161371863,1.0004502052943625,1.060335028405908
27.6,1.0299977013809563,0.9986164990158738,1.05923456851788
27.7,1.0284730276381917,0.9967679574446824,1.0581713162487434
27.8,1.0269308949088924,0.9947353233938032,1.0570305202283543
27.9,1.0253713031930582,0.9927474045464688,1.0558652973396074
28,1.0237942524906896,0.9906473077595668,1.05476097952171
28.1,1.0221997428017857,0.9886072383960265,1.0535907484361755
28.2,1.0205877741263478,0.986534702042142,1.0524748308607184
28.3,1.0189583464643746,0.9844459056507056,1.0512956523053911
28.4,1.0173114598158666,0.9823341638147247,1.0501721446051053
28.5,1.0156471141808243,0.9801721067523235,1.0490548973671747
28.6,1.013965309559247,0.9779716751772505,1.0478656784917915
28.7,1.012266045951135,0.9758378356744678,1.0466445699922096
28.8,1.0105493233564882,0.9736872214718741,1.0453998951358487
28.9,1.0088151417753066,0.9715839427973866,1.0440851635478539
29,1.0070635012075906,0.9694503790950697,1.0427940349061418
29.1,1.0052944016533394,0.9672480245077726,1.0414904499428395
29.2,1.0035078431125537,0.9650265685575028,1.0401796128327445
29.3,1.0017038255852333,0.9627867383164717,1.0388714743468315
29.4,0.999882349071378,0.9605681408071896,1.0375219003988412
29.5,0.9980434135709882,0.958353393590914,1.0361665462912044
29.6,0.9961870190840634,0.9560616882391193,1.0348025472857203
29.7,0.994313165610604,0.9537362675858372,1.03342632627429
29.8,0.9924218531506099,0.9513599848112755,1.0319696598459696
29.9,0.9905130817040808,0.9489250741977526,1.0304891350018566
30,0.9885868512710174,0.9464701071531783,1.0289854643293959
30.1,0.9866431618514188,0.9439950836775526,1.0274624890252977
30.2,0.9846820134452856,0.9415046562273408,1.0259103915285268
30.3,0.9827034060526179,0.9389943665430702,1.024312822346931
30.4,0.9807073396734151,0.9365598566830399,1.022702112801517
30.5,0.978693814307678,0.9341267490353258,1.0210810547949674
30.6,0.9766628299554055,0.9316052391998857,1.0194752215735994
30.7,0.9746143866165988,0.9291223043647019,1.0179121312601
30.8,0.9725484842912573,0.9266671244595754,1.0163768915476177
30.9,0.9704651229793809,0.9241972984392004,1.014727809088189
31,0.9683643026809698,0.9217108131543803,1.013056213195955
31.1,0.9662460233960238,0.9191786793030907,1.0113662610408993
31.2,0.9641102851245433,0.9166016119146003,1.0096248350736379
31.3,0.9619570878665282,0.9141177991076144,1.0079008811995696
31.4,0.959786431621978,0.9115926570099016,1.00615746472672
31.5,0.9575983163908932,0.9090228500780324,1.0044110888607023
31.6,0.9553927421732736,0.9064156105018047,1.0027924609715
31.7,0.9531697089691196,0.9037070560695784,1.001147002277958
31.8,0.9509292167784305,0.9009562944173864,0.9995304013074693
31.9,0.9486712656012066,0.8981875651765143,0.9978938001341691
32,0.9463958554374482,0.8954008683469621,0.9961446015547832
32.1,0.9441029862871548,0.8926223766695047,0.9944981794713904
32.2,0.9417926581503269,0.889841429576071,0.9927570222878547
32.3,0.9394648710269642,0.8869489919185614,0.9909778062416144
32.4,0.9371196249170667,0.8840387242664524,0.9892428406925469
32.5,0.9347569198206345,0.8810860954177349,0.9875467691769365
32.6,0.9323767557376674,0.8780754300024115,0.9856851189730236
