temp,mean,conf_lower,conf_upper
0,2.5053245061924008,2.347717222925189,2.655635586255083
0.1,2.506658310555128,2.349913871226023,2.656211215288769
0.2,2.507969537750947,2.352048041261411,2.6567945319240773
0.3,2.5092581877798574,2.35397382172641,2.6573602800359852
0.4,2.5105242606418603,2.3558731610823873,2.657908459624491
0.5,2.511767756336954,2.357746059329343,2.658439070689596
0.6,2.5129886748651398,2.3596512652872645,2.6590811239601404
0.7,2.5141870162264173,2.361552975876188,2.65974745820692
0.8,2.5153627804207863,2.3634271749042095,2.660384642660711
0.9,2.516515967448247,2.365273862371328,2.660739369734995
1,2.517646577308799,2.367093851530613,2.6612945783084037
1.1,2.5187546100024436,2.3688916968569242,2.6618273865483872
1.2,2.5198400655291793,2.37066195571344,2.6623314045322264
1.3,2.520902943889007,2.372404628100159,2.662713691897782
1.4,2.5219432450819257,2.374122881505529,2.66297530190319
1.5,2.522960969107937,2.3758138399212223,2.663220051291434
1.6,2.5239561159670396,2.3774740147883584,2.6637323543289115
1.7,2.5249286856592335,2.379101897823746,2.6642395578945646
1.8,2.5258786781845197,2.380704192986805,2.6647265192193452
1.9,2.526806093542897,2.3822813465547448,2.66509956478205
2,2.5277109317343665,2.3838309136528877,2.6653636777534873
2.1,2.528593192758927,2.385343300652276,2.665646871862945
2.2,2.52945287661658,2.386845502636806,2.6658510269850737
2.3,2.5302899833073242,2.3883085007487033,2.666037049116248
2.4,2.5311045128311602,2.389743930464487,2.666206159483762
2.5,2.5318964651880878,2.391151791784157,2.6663583580876167
2.6,2.5326658403781073,2.3925320847077125,2.666493644927812
2.7,2.5334126384012183,2.3938891119830368,2.6666120200043477
2.8,2.534136859257421,2.3953438851231823,2.6667092073643417
2.9,2.5348385029467155,2.396766691502478,2.666783960060746
3,2.5355175694691017,2.398068958552181,2.6668419371445022
3.1,2.53617405882458,2.3992651484090475,2.6669011486835306
3.2,2.536807971013149,2.400334804372682,2.666990913396506
3.3,2.53741930603481,2.401442318389031,2.6670552399409355
3.4,2.5380080638895626,2.402596639050392,2.667083717009235
3.5,2.5385742445774073,2.4037270972362155,2.6671493702213316
3.6,2.5391178480983436,2.404838135548644,2.6671568102740504
3.7,2.5396388744523715,2.4059215728691314,2.6671998702343576
3.8,2.540137323639491,2.406940374595573,2.66722082748579
3.9,2.5406131956597022,2.407899828127251,2.667147013634713
4,2.541066490513005,2.408628877360544,2.6671760403777838
4.1,2.5414972081994,2.409715927226209,2.667059293788218
4.2,2.5419053487188865,2.410554959925156,2.666918030542144
4.3,2.542290912071464,2.411339045429078,2.6668135218280344
4.4,2.542653898257134,2.412011232972681,2.6668197475928856
4.5,2.542994307275895,2.412786174967856,2.666901770475758
4.6,2.5433121391277482,2.413575484027015,2.666821949636737
4.7,2.5436073938126933,2.4144014736965014,2.6668635146332162
4.8,2.5438800713307295,2.4151053029612117,2.6667333110865137
4.9,2.5441301716818576,2.4157175181540778,2.6666841947897844
5,2.5443576948660773,2.4163300394792104,2.6662838848932493
5.1,2.544562640883389,2.416901987141392,2.6661710256250766
5.2,2.5447450097337923,2.4174492224733135,2.6660280979574793
5.3,2.544904801417287,2.4180555123624825,2.6657455996200348
5.4,2.5450420159338734,2.418715502965213,2.6654078703946085
5.5,2.5451566532835517,2.419258024008834,2.6651632645728576
5.6,2.5452487134663215,2.419713506539246,2.6649708541717407
5.7,2.545318196482183,2.419994395105582,2.6649313135981014
5.8,2.5453651023311363,2.420347979995918,2.6648193108064637
5.9,2.5453894310131813,2.4208176807355484,2.66440212313384
6,2.545391182528318,2.4209933354984425,2.6642687898763784
6.1,2.5453703568765462,2.4211879379820482,2.663976787946697
6.2,2.5453269540578662,2.4214660429135217,2.6636866182962997
6.3,2.545260974072278,2.4215756193007194,2.6634767967129687
6.4,2.5451724169197814,2.4218408227038686,2.663320553199623
6.5,2.5450612826003765,2.421928083201266,2.663069690928987
6.6,2.544927571114063,2.4220889619001955,2.6627102887474488
6.7,2.5447712824608413,2.422175052242011,2.662271615145275
6.8,2.5445924166407115,2.422208828162739,2.6619343544047283
6.9,2.544390973653673,2.4223045225645476,2.6615625677229797
7,2.544166953499727,2.4222031761634315,2.6611493738486924
7.1,2.5468345622251816,2.426108272358012,2.6624834366897154
7.2,2.5494570166168193,2.429878004138714,2.663783363671074
7.3,2.552034316674641,2.433583103191377,2.6651040125918604
7.4,2.554566462398645,2.4373861901559652,2.666488111866796
7.5,2.557053453788833,2.441103666600156,2.6677268769937754
7.6,2.559495290845205,2.4447284880556666,2.669021727620947
7.7,2.561891973567759,2.448318694563083,2.6703096836919196
7.8,2.564243501956498,2.4518601474225465,2.6716956785188453
7.9,2.566549876011419,2.4553482754136104,2.672975282395956
8,2.568811095732524,2.458823735393855,2.674196994871304
8.1,2.5710271611198117,2.4622502113838003,2.6754021870124243
8.2,2.5731980721732834,2.465627676558974,2.6766054830615955
8.3,2.5753238288929388,2.4689553454611053,2.6777028423062683
8.4,2.5774044312787767,2.4721882594525844,2.6788077981987337
8.5,2.5794398793307987,2.47526381700576,2.6799458624897152
8.6,2.5814301730490037,2.4782894974528427,2.681040263837783
8.7,2.5833753124333922,2.481195938397449,2.6820795629815946
8.8,2.585275297483964,2.4839851134899096,2.6830960439728764
8.9,2.587130128200719,2.486944168488926,2.684095035396805
9,2.588939804583658,2.4897125513745895,2.6849364584285667
9.1,2.59070432663278,2.4925279348310467,2.685770730248494
9.2,2.592423694348085,2.495227913078482,2.686677060357635
9.3,2.5940979077295734,2.497839131679334,2.6874336522329556
9.4,2.5957269667772453,2.500441496028897,2.6880901994409756
9.5,2.597310871491101,2.502691855610218,2.6888447841880647
9.6,2.59884962187114,2.5050715977770452,2.6896212530213073
9.7,2.600343217917362,2.5073621512320665,2.6903219875762354
9.8,2.601791659629767,2.509674089637766,2.6909241804203354
9.9,2.6031949470083564,2.5118942234868404,2.691606625949503
10,2.6045530800531287,2.5141275050209844,2.6921481083710663
10.1,2.605866058764084,2.516199517154199,2.6926384134544534
10.2,2.607133883141223,2.518334399773757,2.692947022220695
10.3,2.608356553184545,2.5204223563269066,2.6933559119356114
10.4,2.6095340688940505,2.522379388469379,2.6937722151915535
10.5,2.61066643026974,2.5244869659813016,2.6940773432877156
10.6,2.6117536373116126,2.5264412581490916,2.694460719397538
10.7,2.6127956900196683,2.52835260020776,2.6946596680537587
10.8,2.613792588393907,2.5302245426634293,2.694764556606931
10.9,2.61474433243433,2.531904980310114,2.6948367277719565
11,2.6156509221409356,2.5337220833583314,2.694911116683273
11.1,2.616512357513725,2.535394373488062,2.6949417133256386
11.2,2.6173286385526975,2.5371308795737075,2.6948254200023465
11.3,2.6180997652578535,2.5386917820886854,2.6948607908926236
11.4,2.6188257376291935,2.540196673129932,2.6947746816081874
11.5,2.6195065556667156,2.541691310751853,2.6946711007114867
11.6,2.620142219370422,2.5432208879680758,2.6945362077553776
11.7,2.620732728740311,2.5445224679833345,2.6943089753187124
11.8,2.6212780837763843,2.5458153185864645,2.693993509690867
11.9,2.6217782844786406,2.5470716195792367,2.693803866404486
12,2.62223333084708,2.5483583149627993,2.6935083470314876
12.1,2.6226432228817034,2.5495984784088757,2.6932289399462617
12.2,2.623007960582509,2.550791796764501,2.6928696609773732
12.3,2.623327543949499,2.5519382700296735,2.6925265757502337
12.4,2.623601972982672,2.5530378982043938,2.6921291957458102
12.5,2.6238312476820287,2.554008913960459,2.6916796216848917
12.6,2.6240153680475684,2.5549143067200704,2.6911842731580293
12.7,2.624154334079291,2.555777203671904,2.6905427351907756
12.8,2.624248145777198,2.5566575146523927,2.689790198032829
12.9,2.624296803141288,2.557380997890717,2.688982725209727
13,2.624300306171561,2.5580659809414326,2.688201470726213
13.1,2.624258654868018,2.558736159160139,2.687473931902667
13.2,2.6241718492306574,2.5593669138693262,2.686705879483041
13.3,2.624039889259481,2.5599575948506734,2.685861887649578
13.4,2.623862774954488,2.5605051311877323,2.6850058369961314
13.5,2.6236405063156782,2.561147348515198,2.6840584540250383
13.6,2.6233730833430515,2.5617227635713564,2.682989381927274
13.7,2.6230605060366083,2.5622298978995235,2.6818383271979296
13.8,2.6227027743963487,2.5626701430376713,2.6807320985679426
13.9,2.6222998884222717,2.5630086982900258,2.679466240483407
14,2.6218518481143787,2.5633506390606646,2.678277719333056
14.1,2.621358653472669,2.56366483841506,2.6770418081669707
14.2,2.620820304497143,2.5639240262259477,2.6757667069886235
14.3,2.6202368011878,2.563955751286665,2.6744491172210916
14.4,2.6196081435446406,2.5639467009810604,2.6730842054995643
14.5,2.6189343315676643,2.5638933532661037,2.6716747962031517
14.6,2.618215365256871,2.5638534060577185,2.6704060451890745
14.7,2.617451244612262,2.5638083309458626,2.669092001412926
14.8,2.616641969633836,2.563749025773615,2.667777340530715
14.9,2.615787540321593,2.5636447970964547,2.666201863861894
15,2.614887956675534,2.5634964581674513,2.6647652249153806
15.1,2.6139432186956575,2.5632457133115114,2.6631791364620288
15.2,2.612953326381965,2.562884667299527,2.661531551347858
15.3,2.611918279734456,2.5625239623622855,2.659792296427795
15.4,2.6108380787531296,2.5622327282187314,2.6579237845877204
15.5,2.6097127234379873,2.5618962139846726,2.655938444905699
15.6,2.608542213789028,2.5615090617175746,2.6541930695903524
15.7,2.607326549806252,2.5610506436618854,2.6524150055206244
15.8,2.60606573148966,2.5604262464580505,2.6506414267343716
15.9,2.604759758839251,2.5597586974740043,2.648826867086422
16,2.603408631855025,2.5590501849790672,2.6467589822983237
16.1,2.6020123505369828,2.5582658034051606,2.644631519316836
16.2,2.600570914885124,2.5574545587489874,2.6425193370871183
16.3,2.599084324899448,2.556587829990157,2.640366948016661
16.4,2.597552580579956,2.55567834334361,2.638212421088215
16.5,2.595975681926647,2.554719410366353,2.636011422504744
16.6,2.5943536289395217,2.5537110915905745,2.6337658241652466
16.7,2.5926864216185797,2.552704085246577,2.6314174398763397
16.8,2.5909740599638207,2.551809426138448,2.6290164542424446
16.9,2.5892165439752457,2.5507522148331665,2.626555439229194
17,2.587413873652854,2.54965276707705,2.62410615544382
17.1,2.585566048996645,2.5485072201238133,2.621627774972067
17.2,2.5836730700066197,2.5471803533823616,2.619145594269944
17.3,2.5817349366827775,2.5457598697266737,2.6166295376651996
17.4,2.579751649025119,2.5444787261162656,2.6140537885522193
17.5,2.5777232070336438,2.5430397570496313,2.611472426015644
17.6,2.5756496107083517,2.541585209433737,2.6087816010576956
17.7,2.5735308600492437,2.540121546551114,2.6060497347682317
17.8,2.5713669550563183,2.5385833432150378,2.603297964439108
17.9,2.569157895729577,2.5368834503843645,2.6004988152973576
18,2.5669036820690185,2.5349295780901793,2.597732051065613
18.1,2.5646043140746437,2.5333568838572695,2.594797355610625
18.2,2.562259791746452,2.5315155348430127,2.591803668913208
18.3,2.5598701150844434,2.529610977331615,2.588939350993927
18.4,2.5574352840886188,2.5276462044569117,2.5861651268774155
18.5,2.554955298758977,2.525832139782521,2.5833255613413537
18.6,2.552430159095519,2.523804551410411,2.5803805806701656
18.7,2.5498598650982442,2.5217781807384467,2.5775608528079355
18.8,2.547244416767153,2.5196299081850295,2.574585273128471
18.9,2.544583814102245,2.5173545300938907,2.5715375731710135
19,2.54187805710352,2.5149551639441734,2.568082289448922
19.1,2.539127145770979,2.5126480602762977,2.564883504110898
19.2,2.5363310801046213,2.5102112850204152,2.5617717399657063
19.3,2.5334898601044467,2.5078237017279132,2.5584958870134313
19.4,2.5306034857704556,2.505455507529007,2.5550774841996065
19.5,2.5276719571026476,2.503076180058005,2.5517068331136903
19.6,2.524695274101023,2.500385248323658,2.5484083628300356
19.7,2.521673436765582,2.497656610475789,2.5452406691011964
19.8,2.5186064450963244,2.49491658179121,2.541945245966556
19.9,2.51549429909325,2.4922998302312207,2.538346089950066
20,2.512336998756359,2.4891791396194156,2.535026258656381
20.1,2.5091345440856516,2.4860687984158893,2.531480592212529
20.2,2.5058869350811275,2.4831374665823005,2.5279250002261637
20.3,2.5025941717427864,2.479988406665172,2.524578690488565
20.4,2.499256254070629,2.477010028293625,2.521396327967584
20.5,2.495873182064655,2.4736027610359876,2.5178953632605885
20.6,2.492444955724864,2.470425341657648,2.5143925314246247
20.7,2.4889715750512567,2.4669947665937477,2.5107611988962635
20.8,2.4854530400438324,2.4635658279752395,2.507093749403027
20.9,2.481889350702592,2.460139290756669,2.5033335212189547
21,2.4782805070275344,2.4566234225884007,2.499556443322165
21.1,2.4746265090186608,2.4531287169917495,2.4957825124226067
21.2,2.47092735667597,2.4491421232270065,2.4919811201118107
21.3,2.4671830499994627,2.4451995744629933,2.488210988115069
21.4,2.463393588989139,2.4413494628974215,2.4845552851901074
21.5,2.4595589736449988,2.4374067738978624,2.480761542378174
21.6,2.4556792039670414,2.4334559148610078,2.4771700796618843
21.7,2.451754279955268,2.429310640135129,2.473374611680562
21.8,2.447784201609678,2.425269641798923,2.469744960940644
21.9,2.4437689689302706,2.4213767026031077,2.465821519961896
22,2.4397085819170465,2.4172260716969394,2.4618897624162326
22.1,2.4356030405700064,2.4130240394961238,2.457891252033135
22.2,2.4314523448891503,2.408774436154279,2.4540734593676468
22.3,2.4272564948744764,2.404365431721633,2.4500147173475457
22.4,2.4230154905259864,2.399879060332343,2.44600744083057
22.5,2.4187293318436796,2.3953108153405096,2.4419825431625926
22.6,2.414398018827556,2.3905671537658204,2.4379107115964076
22.7,2.410021551477616,2.3856428171359934,2.4339358830260744
22.8,2.4055999297938593,2.3807624229878006,2.429734025316762
22.9,2.401133153776286,2.3761863279238673,2.425540898272211
23,2.396621223424896,2.371289456179463,2.421184453498243
23.1,2.3920641387396895,2.3663789161873305,2.416804779390837
23.2,2.387461899720667,2.3612012978655366,2.412573967760241
23.3,2.3828145063678265,2.356034233943225,2.4082781933248887
23.4,2.37812195868117,2.350882728984868,2.4040091349778843
23.5,2.373384256660697,2.3454191211276063,2.3996594276379275
23.6,2.368601400306407,2.34026197597458,2.395400118884718
23.7,2.3637733896183013,2.3347277280127527,2.391155291449626
23.8,2.3589002245963777,2.329401880840886,2.386646927446294
23.9,2.353981905240638,2.324028960869847,2.3822224730988575
24,2.349018431551082,2.3186601585610256,2.3777375562863847
24.1,2.344009803527709,2.3131331941516122,2.3731983411054807
24.2,2.33895602117052,2.3076582625653606,2.368579317791876
24.3,2.3338570844795132,2.30213890311038,2.3641657285252204
24.4,2.328712993454691,2.2964995151256105,2.359712713036113
24.5,2.3235237480960516,2.2908711456450557,2.3551439529628864
24.6,2.3182893484035954,2.28505092047814,2.350648085010059
24.7,2.3130097943773227,2.279254882386302,2.3460886753177475
24.8,2.307685086017233,2.273325411202958,2.3412767463707542
24.9,2.3023152233233275,2.2672140622956305,2.336417744293474
25,2.2969002062956045,2.261452682379101,2.3317216227763486
25.1,2.2914400349340656,2.2553508613189215,2.3270464358975094
25.2,2.2859347092387097,2.2493634435017804,2.3221159038747605
25.3,2.2803842292095373,2.2430526235856045,2.317090125717229
25.4,2.2747885948465485,2.2366855403719748,2.312010243384749
25.5,2.2691478061497428,2.230411050127878,2.30703306085299
25.6,2.26346186311912,2.2242756460043576,2.302058477987896
25.7,2.257730765754681,2.2176177942745507,2.2970302478786944
25.8,2.2519545140564254,2.2111335835043504,2.291802902842849
25.9,2.2461331080243534,2.2047026128569405,2.286521469804607
26,2.2402665476584644,2.198461608796394,2.281188415301151
26.1,2.234354832958759,2.191902675035011,2.2759155506285307
26.2,2.2283979639252367,2.1852302541072754,2.2705610750982164
26.3,2.222395940557898,2.1785529803426034,2.265221054335621
26.4,2.2163487628567426,2.171943106570554,2.259933484311517
26.5,2.2102564308217705,2.165168000796227,2.2545109933683642
26.6,2.204118944452982,2.1583107647037436,2.249021830245101
26.7,2.1979363037503763,2.151427617902713,2.243385119626563
26.8,2.1917085087139547,2.144569216527575,2.2376607671034074
26.9,2.1854355593437162,2.1375981601078218,2.2321905518715326
27,2.179117455639661,2.13061514747878,2.2267236204539698
27.1,2.172754197601789,2.1237061498135033,2.2212716457050248
27.2,2.1663457852301002,2.1167582010301462,2.2157812587549683
27.3,2.1598922185245955,2.109697160689498,2.2100419589217206
27.4,2.1533934974852738,2.1025537794935834,2.2041824184395424
27.5,2.146849622112135,2.095337561638041,2.198230379632091
27.6,2.14026059240518,2.0880478160425686,2.1922316823147523
27.7,2.1336264083644085,2.080683695941595,2.1861886623817317
27.8,2.1269470699898205,2.073285768376075,2.180212613399844
27.9,2.1202225772814156,2.065880332351223,2.174059647739622
28,2.113452930239194,2.05848449480683,2.167982323056075
28.1,2.1066381288631555,2.0510199967308087,2.161813839243773
28.2,2.099778173153301,2.0435364399326956,2.155580025028005
28.3,2.0928730631096295,2.035852477576803,2.149302837956871
28.4,2.085922798732142,2.0281003674434306,2.142987065424814
28.5,2.0789273800208368,2.0203144979171013,2.1367397953917386
28.6,2.0718868069757157,2.012587250898866,2.1305214372971975
28.7,2.0648010795967777,2.0046083656269693,2.124248668189394
28.8,2.0576701978840233,1.9966708163016431,2.117987391273031
28.9,2.050494161837452,1.9887697349291258,2.111730715454081
29,2.043272971457064,1.980848219042147,2.1053953553628277
29.1,2.0360066267428594,1.9728187473971337,2.0989159056026763
29.2,2.0286951276948386,1.9646788674017994,2.0923867089423656
29.3,2.0213384743130005,1.9565392212869335,2.0858705325989617
29.4,2.0139366665973464,1.9484657712830311,2.0793287362002078
29.5,2.0064897045478753,1.9403466425142297,2.072669932081186
29.6,1.9989975881645874,1.9320964510691259,2.0659534121691356
29.7,1.9914603174474834,1.9237258283066447,2.059111709195769
29.8,1.9838778923965625,1.915188237368148,2.0522770715298915
29.9,1.9762503130118252,1.9066063857823619,2.0454977065475344
30,1.968577579293271,1.898056822225216,2.038556286799439
30.1,1.9608596912409,1.8895280427470853,2.0315185455030753
30.2,1.9530966488547126,1.8809648227062357,2.0245574617289535
30.3,1.9452884521347085,1.8723802634723055,2.017556641888188
30.4,1.937435101080888,1.8638237404034892,2.010564735310457
30.5,1.9295365956932504,1.8552192127624028,2.003710828657212
30.6,1.9215929359717965,1.8465667410812339,1.9968133000447328
30.7,1.913604121916526,1.8378689440276548,1.9898139632796372
30.8,1.9055701535274387,1.8290732922000432,1.982767278919228
30.9,1.897491030804535,1.8201194010676438,1.9756670658761861
31,1.8893667537478145,1.8112161589455185,1.9685718930832574
31.1,1.8811973223572773,1.8023452409506255,1.9612850439307277
31.2,1.8729827366329235,1.7933918831922653,1.9538565086293398
31.3,1.8647229965747534,1.784279396598472,1.9463982039000343
31.4,1.8564181021827661,1.7752317895364609,1.938896047740839
31.5,1.8480680534569625,1.7660225656252777,1.9313330750198507
31.6,1.839672850397342,1.7567895291697453,1.9237008260424644
31.7,1.8312324930039052,1.7475473245709414,1.9159738888315734
31.8,1.822746981276652,1.7382675612442466,1.9082311232954954
31.9,1.8142163152155817,1.7288578027492334,1.900517723054898
32,1.805640494820695,1.7193791664580653,1.8927158401357564
32.1,1.7970195200919914,1.7099257202397538,1.884873772331608
32.2,1.7883533910294713,1.7004065190445545,1.8769792029471355
32.3,1.7796421076331348,1.6908509626585695,1.8691552256170283
32.4,1.7708856699029814,1.6813193933083423,1.861333376131494
32.5,1.7620840778390114,1.6718080821456007,1.8535035210906396
32.6,1.7532373314412248,1.662041184659901,1.8457738407133712
32.7,1.7443454307096213,1.6522111287027659,1.838031771288247
32.8,1.7354083756442016,1.6423536357076989,1.830289362567758
32.9,1.7264261662449654,1.6324329556855002,1.8223774902979895
33,1.717398802511912,1.622360285911201,1.8143929718420788
33.1,1.7083262844450422,1.6123927567204397,1.8063612451205608
