temp,mean,conf_lower,conf_upper
0,0.017841723408520287,0.01482924156364156,0.01999705414794858
0.1,0.01811310014681253,0.015088721086223856,0.020264865471356874
0.2,0.018388396156761418,0.015353727133506603,0.020536303956917974
0.3,0.018667649109331733,0.015628039143321695,0.020815963177130907
0.4,0.018950896656124937,0.01589319274325429,0.02110275223224097
0.5,0.019238176421539886,0.016160292077426457,0.021393483250181377
0.6,0.01952952599485244,0.016439198485229206,0.021688194520725426
0.7,0.0198249829222199,0.016715078643322487,0.021986924358557244
0.8,0.020124584698608523,0.017004611637116786,0.022286629817552864
0.9,0.020428368759641824,0.01730437319487983,0.02258673276251579
1,0.02073637247337471,0.017609561046367652,0.022900228295662295
1.1,0.021048633131987477,0.017919522773890015,0.023217825929009433
1.2,0.021365187943402905,0.018234303149607944,0.023539559973487507
1.3,0.02168607402282453,0.018553764797740027,0.023865464674685716
1.4,0.02201132838419399,0.01887787217191841,0.02419557420582321
1.5,0.02234098793156832,0.01919908971248533,0.0245296041076951
1.6,0.02267508945041271,0.019526764464507955,0.0248668311872159
1.7,0.02301366959881002,0.019862242237707616,0.025208465338847828
1.8,0.023356764898582863,0.02020078708596316,0.025552795402035436
1.9,0.023704411726325245,0.020543745572046815,0.02589510097670829
2,0.02405664630434415,0.020898161296483364,0.02624102867486852
2.1,0.02441350469150345,0.021254171142211967,0.02658754634462161
2.2,0.02477502277396982,0.021615158305691003,0.026936039680499468
2.3,0.02514123625585684,0.02198163010203883,0.027288830987137535
2.4,0.025512180649759738,0.022353396281446856,0.02765286958021113
2.5,0.025887891267180756,0.02273311323786931,0.028025106546773385
2.6,0.026268403208835507,0.023113466788174854,0.028395742377772554
2.7,0.026653751354837503,0.023499727230768153,0.0287793198485235
2.8,0.02704397035475539,0.023892927157753662,0.029169925177994313
2.9,0.027439094617531967,0.024296923291956075,0.029558096524655894
3,0.02783915830126513,0.024714890222346117,0.029949820819076232
3.1,0.028244195302835094,0.02511117699138712,0.030345849560842485
3.2,0.02865423924737636,0.02551055860626365,0.03074670948755389
3.3,0.02906932347758368,0.02591480656630528,0.031150649981355336
3.4,0.029489481042839733,0.02634992233338832,0.031563511140161725
3.5,0.029914744688161164,0.02679218664981334,0.031984390111265366
3.6,0.030345146842945526,0.02722568509355335,0.03241416951976054
3.7,0.030780719609513948,0.027680464920517695,0.03284781884881276
3.8,0.031221494751435378,0.028132885334303463,0.03328609855284893
3.9,0.03166750368161785,0.028584338751214442,0.033730133589996665
4,0.03211877745016046,0.029049323651699235,0.03417717261387103
4.1,0.03257534673194375,0.029516442992344915,0.034623627156522035
4.2,0.033037241813951373,0.02996893909414064,0.03507519085742495
4.3,0.033504492582305305,0.030424865468093462,0.0355318962010278
4.4,0.03397712850899638,0.030887942619777974,0.03599377534937005
4.5,0.03445517863829873,0.031373589975319645,0.03646086012712392
4.6,0.03493867157284486,0.0318658429818118,0.03693294841779918
4.7,0.035427635459348544,0.032364432216843424,0.03741019748982024
4.8,0.03592209797395379,0.03286939488851242,0.037893630991002694
4.9,0.03642208630718863,0.0333807672893787,0.038381879348294214
5,0.036927627148507634,0.03390018484579214,0.03887832054436587
5.1,0.03743874667039544,0.03442649048832464,0.03938714834754245
5.2,0.037955470512015366,0.03495680066929565,0.03990154315602666
5.3,0.03847782376237652,0.035493438659680146,0.04041821952846384
5.4,0.03900583094299083,0.03603790545339244,0.04094526496678851
5.5,0.03953951599000629,0.036579442775763776,0.04146637929110315
5.6,0.040078902235776766,0.03712741795489549,0.04198849595807074
5.7,0.040624012389851055,0.03769399443609297,0.0425203063605808
5.8,0.041174868519351496,0.0382576004369025,0.04307035521551492
5.9,0.0417314920287053,0.038827400677657296,0.043628626594352495
6,0.04229390363871273,0.03939709902269375,0.04419272638360118
6.1,0.0428621233649051,0.03999359208399803,0.04476267478191047
6.2,0.04343617049517432,0.04058212102532054,0.04533784454539292
6.3,0.044016063566633276,0.04116575348812106,0.045912718373957946
6.4,0.04460182034167093,0.041746988830800455,0.046482616765467215
6.5,0.04519345778317787,0.04234706283946297,0.04707733313327465
6.6,0.0457909920288909,0.04296009979850992,0.04768155377935123
6.7,0.04639443836483287,0.043577260235926535,0.04829179904319101
6.8,0.04700381119780177,0.04420204571158307,0.04890804191047481
6.9,0.047619124026870234,0.04484027926635332,0.049529975429721373
7,0.0482403894138602,0.04547469169634756,0.05014929822312358
7.1,0.048867618952742796,0.04610802902495943,0.05076924844259815
7.2,0.04950082323792858,0.04675607365740088,0.05138961094314341
7.3,0.050140011831401377,0.047412141512551645,0.05201026815160567
7.4,0.050785193228649515,0.048075723786302635,0.052635880901586315
7.5,0.051436374823352414,0.04875098161065655,0.05326721445003638
7.6,0.052093562870771874,0.04942298023984721,0.053910370952073176
7.7,0.05275676244980456,0.05008911212354336,0.05455114767068098
7.8,0.0534259774236459,0.0507634929731246,0.055208974020598274
7.9,0.054101210399010675,0.05144182941321167,0.05589398455870382
8,0.05478246268387184,0.05214980631685268,0.05658625251378697
8.1,0.055469734243651724,0.05286444705914208,0.05725779257942599
8.2,0.05616302365582657,0.0535790488185895,0.05795926774028552
8.3,0.05686232806288561,0.05428769552018788,0.05867445576695533
8.4,0.05756764312358718,0.055010376613098856,0.05939560126803187
8.5,0.05827896296247125,0.0557357694676292,0.06009909687901567
8.6,0.05899628011755679,0.05646455939463386,0.06082528375594277
8.7,0.059719585486182065,0.05720424038137764,0.0615562840336859
8.8,0.06044886826892911,0.05793401923901806,0.06229472730863911
8.9,0.06118411591157067,0.058674993176296854,0.0630374376559441
9,0.06192531404499295,0.05942758369464754,0.0637843306784671
9.1,0.06267244642302991,0.06018856717130773,0.06452873786407626
9.2,0.0634254948581606,0.06094601507489778,0.06528074022848356
9.3,0.06418443915500799,0.061702056810074485,0.06604830300532312
9.4,0.06494925704158398,0.06246190705800816,0.06680831361111088
9.5,0.0657199240982322,0.06323623977340585,0.06758221303017255
9.6,0.06654861641014184,0.06408993291542826,0.06840286719587924
9.7,0.06738415566221272,0.06494367075970674,0.06924211354090248
9.8,0.06822652918548051,0.06578367953604046,0.07009808505967059
9.9,0.06907572211172888,0.06661471801443662,0.07096142715782461
10,0.0699317172916091,0.06746801671274065,0.07183104332639803
10.1,0.07079449521008431,0.06834039544075936,0.07270753029582004
10.2,0.07166403389916351,0.06918949990234699,0.07359542551395587
10.3,0.07254030884787306,0.07003840110094839,0.07448933253190017
10.4,0.07342329290941836,0.0709208886980772,0.07540921891972292
10.5,0.07431295620550572,0.07181483518166419,0.0763309366772837
10.6,0.07520926602777792,0.0727115190151015,0.07724900983743326
10.7,0.0761121867363318,0.07361084596275057,0.07817747178033549
10.8,0.0770216796552936,0.07452107179840077,0.0791111322705491
10.9,0.07793770296541551,0.07543182547227918,0.08005474806711528
11,0.07886021159368621,0.07634520931254267,0.08099633890827457
11.1,0.07978915709992458,0.07725567398852815,0.08193584557338837
11.2,0.08072448756036132,0.07818007452047428,0.0828888621853312
11.3,0.08166614744819836,0.07910531715488366,0.08384883814844771
11.4,0.08261407751114189,0.08003839845312048,0.08481201178289799
11.5,0.08356821464593774,0.08097926406889473,0.08577909210167659
11.6,0.08452849176990734,0.08192184998988976,0.08677779256835673
11.7,0.08549483768952558,0.08287901833975003,0.08775666098363406
11.8,0.08646717696607363,0.0838197423560883,0.0887680616199323
11.9,0.08744542977840314,0.08477801591662015,0.0897597966443404
12,0.0884295117828888,0.08573700630211974,0.09078330973376887
12.1,0.08941933397061258,0.08669228842708411,0.09179467102061233
12.2,0.09041480252188135,0.08768421324380202,0.09281221825213803
12.3,0.09141581865816183,0.08867422650329984,0.09384048595217545
12.4,0.09242227849153312,0.08965050927111326,0.09486612616761021
12.5,0.09343407287179716,0.0906489230574306,0.09588979179399171
12.6,0.0944510872313621,0.0916340963680644,0.09691899422843935
12.7,0.09547320142807028,0.09262612466248998,0.09795254540808611
12.8,0.09650028958613499,0.09364877066533306,0.09899029326827147
12.9,0.09753221993536798,0.09468389644414632,0.10003839398266767
13,0.098568854648925,0.09571102790044866,0.10111043120944545
13.1,0.09961004967977574,0.09673244849441764,0.10216925637109162
13.2,0.10065565459616736,0.09777268269811883,0.10322330281484081
13.3,0.10170551241634825,0.09881936192115397,0.10427004175186749
13.4,0.10275945944283875,0.0998500543890851,0.10532725676416055
13.5,0.10381732509658784,0.10088622707915,0.1063863373738172
13.6,0.10487893175134243,0.10195056648729513,0.10745982778201803
13.7,0.10594409456861854,0.10301221729529018,0.10853715274147119
13.8,0.10701262133366327,0.10406570364200268,0.10961593625666197
13.9,0.10808431229283479,0.10512337042241601,0.11068935855054741
14,0.1091589599928733,0.10618719292626176,0.11176577668419285
14.1,0.11023634912252564,0.10725090158050288,0.11284452578384259
14.2,0.11131625635706627,0.10831853803771292,0.11392648744488999
14.3,0.11239845020625422,0.10939075505508594,0.11501817014894726
14.4,0.1134826908663035,0.11047515545122502,0.11610834788286357
14.5,0.11456873007649716,0.11156799913559282,0.11719339138529786
14.6,0.11565631098108321,0.11264862043427064,0.11827732534613114
14.7,0.1167451679971405,0.11372587940836804,0.1193599977301547
14.8,0.11783502668913869,0.11480550035163223,0.1204447782755669
14.9,0.11892560365092797,0.11589152331381299,0.12154465604144034
15,0.12001660639597098,0.11697978093961989,0.12263128732072597
15.1,0.12110773325661135,0.11807026767067465,0.12371067653695261
15.2,0.12219867329325501,0.11916674490781104,0.12478830811639467
15.3,0.12328910621434577,0.12026134134289684,0.12587690580386932
15.4,0.1243787023080485,0.12136256768284112,0.12695885391600353
15.5,0.12546712238660734,0.12245988857457096,0.12802623776009145
15.6,0.1265540177443472,0.12354724843295847,0.12910343595528082
15.7,0.1276390301303385,0.12463204300746449,0.13017655376928014
15.8,0.12872179173676224,0.12572233837007435,0.13124368774127365
15.9,0.1298019252040264,0.12681421970476237,0.13230916747102586
16,0.13087904364373443,0.1279121330786962,0.13337032560142587
16.1,0.13195275068059054,0.12899656829597236,0.13442680621133252
16.2,0.13302264051436927,0.13006864662110815,0.13548292774312434
16.3,0.13408829800308092,0.1311385469300827,0.13654459409181682
16.4,0.1351492987684511,0.1322064906796607,0.13759745625714973
16.5,0.1362052093248803,0.13326850429076564,0.1386349473751905
16.6,0.13725558723299652,0.13430395928050237,0.1396650969963777
16.7,0.1382999812789444,0.13534641848630832,0.1406768424596244
16.8,0.13933793168052608,0.1363722314978738,0.14168554904167832
16.9,0.14036897032127751,0.13740109660960148,0.14271262694944695
17,0.1413926210135736,0.13842878831305336,0.1437452934573991
17.1,0.1424083997917696,0.13942767539187567,0.1447562444284588
17.2,0.1434158152363975,0.1404575492033712,0.14576724210762965
17.3,0.14441436883035288,0.14146423390887763,0.146769253097442
17.4,0.14540355534795105,0.1424648072263993,0.1477511729782415
17.5,0.14638286327769007,0.14343311810282325,0.14871378564696536
17.6,0.14735177527945015,0.14438640342484096,0.1496802275225385
17.7,0.1483097686767931,0.14531276633213738,0.150625134476439
17.8,0.1492563159849295,0.14622592945304572,0.1515748499622727
17.9,0.15019088547480158,0.1471640551214781,0.15248577223666435
18,0.15111294177363616,0.1480789120203578,0.15340063707637028
18.1,0.15202194650217368,0.14898763394257855,0.15431423876879058
18.2,0.15291735894866315,0.14985862638281722,0.15520628205702156
18.3,0.15379863677955746,0.1507026781090274,0.15608030790754962
18.4,0.1546652367866819,0.15154901988723854,0.15694482776822102
18.5,0.15551661567050323,0.15238471632380535,0.157792800115239
18.6,0.15635223085892547,0.15319876201875526,0.15862988208756162
18.7,0.15717154136087993,0.1540107879423213,0.1594585746587892
18.8,0.1579740086537704,0.15479707346562388,0.1602697619774494
18.9,0.15875909760363333,0.15556940335196903,0.1610437420435371
19,0.15952627741668454,0.1563152323978692,0.1617897295054969
19.1,0.16027502262068544,0.15702202008227845,0.16253646906620256
19.2,0.16100481407437164,0.15771323162584364,0.163267395555729
19.3,0.1617151400029512,0.15840841652672386,0.16400576161880728
19.4,0.16240549705745275,0.15907613533285503,0.16472015284724972
19.5,0.1630753913955054,0.1597122908233498,0.16539990215018252
19.6,0.16372433978087514,0.16032522102575353,0.16604604721647445
19.7,0.16435187069889523,0.16091517234397923,0.16669471888464987
19.8,0.16495752548469095,0.16151488684889123,0.16730770986951887
19.9,0.16554085946089328,0.16207770623467255,0.16791352955572922
20,0.16610144308134656,0.16263137904048977,0.16847238376469098
20.1,0.16663886307710213,0.16316593258770296,0.16902663127835427
20.2,0.1671527236008284,0.1636922600583872,0.1695543908058406
20.3,0.16764264736559234,0.1641736847976001,0.1700690015060439
20.4,0.16810827677381343,0.16461299398682114,0.1705553206845195
20.5,0.1685492750320705,0.16502760568569785,0.1709808115650747
20.6,0.16896532724731456,0.16544042820246335,0.1713911633895044
20.7,0.16935614149996087,0.16581668592911114,0.1718012953980028
20.8,0.16972144988925914,0.16618021791778775,0.1721748805770485
20.9,0.1700610095462987,0.16651661096467915,0.17250716772448954
21,0.1703746036099946,0.16683031767083722,0.1728229977589663
21.1,0.17066204216140357,0.1671102817599525,0.1731165827525075
21.2,0.1709231631117681,0.16735594277139634,0.17336631717653722
21.3,0.17115783303975426,0.16760078899823122,0.17358869612161723
21.4,0.17136594797344845,0.1678066830704068,0.17378908462561174
21.5,0.17154743411281748,0.16798279873509642,0.17397342846652702
21.6,0.17170224848849297,0.1681348365144234,0.1741365187782541
21.7,0.17183037955294236,0.16823870050680503,0.17425816731190774
21.8,0.1719318477003123,0.16834904898423697,0.1743638406348151
21.9,0.17200670571148521,0.1684280493125242,0.17444815327749613
22,0.17205503912117615,0.1685141742069005,0.17448379108532872
22.1,0.17207696650420898,0.16849247400241218,0.17451866029690977
22.2,0.17207263967844494,0.16841741036778748,0.17453507351073175
22.3,0.17204224382220676,0.1683495626502567,0.17452854421349967
22.4,0.1719859975044109,0.16826747189051292,0.17450669580298891
22.5,0.1719041526260359,0.16816357327363363,0.17447798262769407
22.6,0.17179699427196227,0.16801898523285907,0.17440855789559384
22.7,0.17166484047265307,0.16784631369130615,0.1743350206861532
22.8,0.17150804187558782,0.16761671670929199,0.17426252677567497
22.9,0.17132698132679994,0.16736009481777767,0.1741198170374905
23,0.17112207336332808,0.16710156037891416,0.17397980194581752
23.1,0.17089376361783118,0.1668166929932973,0.17383959090579693
23.2,0.1706425281370675,0.16647780691980452,0.17366155829774313
23.3,0.17036887261636827,0.16611692866111846,0.17345194768089708
23.4,0.17007333155266974,0.16570490660386308,0.17323660041698097
23.5,0.1697564673190668,0.16529947109669993,0.17301429210037775
23.6,0.16941886916425158,0.1648924297216751,0.17278622584668724
23.7,0.16906115214056824,0.16439145093643462,0.17254428225376772
23.8,0.1686839559647562,0.16391014175725274,0.1723056292539251
23.9,0.16828794381578088,0.16340513718355235,0.17201644210307995
24,0.16787380107443098,0.16285491414895714,0.1717083458985351
24.1,0.16744223400962993,0.16228803716805795,0.17138968540411248
24.2,0.16699396841662034,0.16175377777409441,0.17105512824425154
24.3,0.16652974821237607,0.1611823445246804,0.17072289323019976
24.4,0.1660503339937548,0.1606141835784307,0.17037443818296125
24.5,0.1655565015640048,0.15996223890831274,0.1700672343342799
24.6,0.1650490404333342,0.15932320742115563,0.16975771954947816
24.7,0.16452875229928005,0.1586352816906032,0.16943981598259858
24.8,0.1639964495126276,0.15792523955060322,0.1691232593371747
24.9,0.16345295353459605,0.15725289923787744,0.16877287345641045
25,0.16289909339093045,0.156567978809425,0.1684218886387546
25.1,0.1623357041284587,0.15585053241439484,0.16803381707440182
25.2,0.1617636252795197,0.15510081078467683,0.16763651521180065
25.3,0.16118369933950677,0.15438384678242506,0.16722539322322297
25.4,0.16059677026260252,0.1536380600316659,0.16679638717928816
25.5,0.16000368198051923,0.15286145673159138,0.16637990846488826
25.6,0.15940527694886295,0.1521294065441745,0.16596126285097482
25.7,0.15880239472544516,0.151404102543825,0.16553759075684754
25.8,0.15819587058459378,0.15067871132998467,0.16510948498914554
25.9,0.15758653417122725,0.14996003799235588,0.16467725730786903
26,0.1569752081981304,0.14923178330957762,0.16423322310758148
26.1,0.15636270718956782,0.14845073707542455,0.1637812345666606
26.2,0.1557498362740266,0.1476965685850382,0.16332168703836247
26.3,0.15513739002856403,0.14696335170518876,0.1628550691633492
26.4,0.15452615137689973,0.14623761389507384,0.16238664297580807
26.5,0.1539168905430505,0.14552241296531984,0.1619171920643316
26.6,0.153310364061988,0.14480370356695677,0.1614527030905681
26.7,0.1527073138484746,0.14407974573882426,0.1609718903060705
26.8,0.15210846632490307,0.14336158071074925,0.16048183893858892
26.9,0.15151453160868625,0.14263545633490618,0.1600146184302098
27,0.15092620275941074,0.141942271164151,0.1595509022491296
27.1,0.15034415508572113,0.14125984355856344,0.15906329619538995
27.2,0.14976904551160444,0.14058223852860566,0.15860304464618974
27.3,0.14920151200150267,0.13990428016675704,0.1582210310853391
27.4,0.14864217304344793,0.13924667001120916,0.15784846796967672
27.5,0.14809162718917196,0.13859876912321867,0.15745575799550723
27.6,0.1475504526499642,0.13796191787792958,0.15706530236321264
27.7,0.14701920694684228,0.13734325932314284,0.15663855315969072
27.8,0.1464984266134418,0.13673103545158238,0.15621800091372492
27.9,0.14598862694988435,0.13615155063415746,0.15580278827326857
28,0.14549030182572747,0.13559260217259517,0.15539280246907075
28.1,0.14500392353001998,0.13504602111760627,0.15498238047964552
28.2,0.14452994266635089,0.1345066366598138,0.15458205863027358
28.3,0.14406878809071547,0.1339579049874887,0.15420024397640988
28.4,0.1436208668899699,0.1333981201084437,0.15381425212252303
28.5,0.14318656439855404,0.13287529229189074,0.153445938491536
28.6,0.14276624425118067,0.13243183083218352,0.15306618820748652
28.7,0.142360248469115,0.132017968887363,0.15273756486366905
28.8,0.1419688975777006,0.131602684302179,0.1524455334670738
28.9,0.14159249075276825,0.13119057034754372,0.15216461001106363
29,0.14123130599358966,0.13080598492545037,0.15189463905970446
29.1,0.14088560032005915,0.13045981826976588,0.15163664946984995
29.2,0.14055560999182815,0.1301032016631756,0.1513946640519397
29.3,0.14024155074715475,0.1297593806041659,0.15116367126074956
29.4,0.13994361805928812,0.12946229822569494,0.15096377693631924
29.5,0.1396619874082654,0.12918996011651074,0.15077115730993756
29.6,0.1393968145660676,0.12893373216277768,0.1505818144939449
29.7,0.13914823589314293,0.1286933322057143,0.15040865464997855
29.8,0.1389163686443946,0.12846308006008536,0.1502351762562384
29.9,0.1387013112828033,0.12823785054350384,0.15006773603172785
30,0.1385031437989386,0.1280294336519248,0.14990177637249524
30.1,0.1383219280346938,0.12783231840384796,0.14973979457805298
30.2,0.13815770800968175,0.1276633811312198,0.14959842725264808
30.3,0.13801051024880204,0.12750953306531998,0.14947139101283274
30.4,0.13788034410959069,0.12737796588750133,0.14935390711451643
30.5,0.13776720210804644,0.12726870597452417,0.14924075304503695
30.6,0.1376710602417317,0.12717533088542798,0.14916686570490978
30.7,0.13759187830901484,0.12710776800626392,0.14908090722090495
30.8,0.1375296002234393,0.1270358972066728,0.14903534553967754
30.9,0.13748415432226285,0.12699572121842087,0.14897807611395228
31,0.13745545366832826,0.12697031689326457,0.14896062578476155
