temp,mean,conf_lower,conf_upper
0,0.8019724523031728,0.7103227504794251,0.9013166286537825
0.1,0.8030429921405497,0.7118575476275666,0.9019628008835918
0.2,0.8041045806904373,0.713380494678723,0.9026024862130283
0.3,0.8051572179528355,0.7148915916328944,0.9032356846420919
0.4,0.8062009039277442,0.716390838490081,0.9038623961707826
0.5,0.8072356386151633,0.7178793144177207,0.9044818105457818
0.6,0.8082614220150932,0.7193598629529198,0.9050926135129391
0.7,0.8092782541275337,0.7208285141162558,0.9056690287867191
0.8,0.8102861349524848,0.7222852679077291,0.9062269403970457
0.9,0.8112850644899465,0.7237301243273395,0.906806472954405
1,0.8122750427399186,0.7251630833750867,0.9073718890439983
1.1,0.8132560697024014,0.7265841450509714,0.9078958919585185
1.2,0.8142281453773949,0.7279933093549928,0.9084135546611805
1.3,0.8151912697648989,0.7293905762871515,0.9089185817273904
1.4,0.8161454428649135,0.7307759458474474,0.9094327103971556
1.5,0.8170906646774385,0.7321494180358802,0.9099178934968906
1.6,0.8180269352024743,0.7335109928524501,0.9104423881292978
1.7,0.8189542544400206,0.7348606702971572,0.9109566001808056
1.8,0.8198726223900776,0.7361837603388028,0.9114535555050789
1.9,0.8207820390526452,0.7375184357692941,0.9118991291280725
2,0.8216825044277232,0.7388263513968606,0.9123087838442164
2.1,0.8225740185153119,0.7401268803293852,0.9127694572480687
2.2,0.8234565813154111,0.7413784371387224,0.9132240521250838
2.3,0.8243301928280211,0.7426135182095763,0.913672568475262
2.4,0.8251948530531416,0.7438785708200273,0.9141150062986032
2.5,0.8260505619907725,0.7451666258364736,0.9146010524424135
2.6,0.8268973196409141,0.7464424965809526,0.9151004520899266
2.7,0.8277351260035664,0.7476785866352016,0.9155932777979477
2.8,0.8285639810787292,0.7488376200439613,0.9160795295664772
2.9,0.8293838848664026,0.7499846991595561,0.9165192013646892
3,0.8301948373665865,0.7511232583969372,0.9169459183823998
3.1,0.830996838579281,0.7522513916239522,0.9173620523661381
3.2,0.8317898885044861,0.7533742109231605,0.9177563774364884
3.3,0.832573987142202,0.7545552373834867,0.9181148724600874
3.4,0.8333491344924284,0.7557288208769661,0.9184678070473682
3.5,0.8341153305551652,0.7568904113328523,0.9188393999232557
3.6,0.8348725753304127,0.7580639084349794,0.9192338898425496
3.7,0.8356208688181708,0.7591490096933595,0.9196214472185948
3.8,0.8363602110184395,0.7602179244943832,0.920000181084217
3.9,0.8370906019312188,0.761275225905627,0.9203630425747948
4,0.8378120415565086,0.7623258773860966,0.9206712822447396
4.1,0.8385245298943089,0.7633685091839273,0.9209900386958394
4.2,0.8392280669446199,0.7643776888759308,0.9213493806763691
4.3,0.8399226527074417,0.7653941753271285,0.9217023057963805
4.4,0.8406082871827739,0.7663456600238929,0.9220488140558738
4.5,0.8412849703706167,0.767286101497131,0.9223876565123987
4.6,0.84195270227097,0.7682278200182006,0.9226916448273358
4.7,0.8426114828838339,0.7691609696473796,0.9229139780512405
4.8,0.8432613122092085,0.7700827927479903,0.9232565709972684
4.9,0.8439021902470938,0.770993289320033,0.9235988311081778
5,0.8445341169974894,0.7718924593635075,0.9239127086772112
5.1,0.8466751966722432,0.7749565941852649,0.9250672094812495
5.2,0.8487983737720183,0.7779971591159565,0.9262587290146564
5.3,0.8509036482968146,0.781014154155582,0.9274472895118899
5.4,0.852991020246632,0.7840090150520896,0.928636035615553
5.5,0.8550604896214705,0.7869849150926926,0.9297789648132363
5.6,0.8571120564213301,0.7899310716384091,0.9309057002739298
5.7,0.8591457206462112,0.7929208776014083,0.9320305230255537
5.8,0.8611614822961133,0.795840894400387,0.9331432683004217
5.9,0.8631593413710366,0.79870853251487,0.9342100854385975
6,0.865139297870981,0.8015545106449159,0.9352794414482734
6.1,0.8671013517959465,0.8043808848077723,0.9363562894463261
6.2,0.8690455031459333,0.8072669643622792,0.9374526034496364
6.3,0.8709717519209415,0.8100733429468092,0.9384949535845839
6.4,0.8728800981209706,0.8128202053180654,0.9395195657068522
6.5,0.8747705417460209,0.8155813842004456,0.9405384311420535
6.6,0.8766430827960923,0.8182615083138223,0.941589889685365
6.7,0.8784977212711849,0.820896138702353,0.9426437599399012
6.8,0.880334457171299,0.823556516466297,0.9435784946167818
6.9,0.8821532904964339,0.8262187897689595,0.9445503497261145
7,0.8839542212465901,0.828813815884307,0.9455020578256879
7.1,0.8857372494217675,0.8313391216085145,0.9464221728157256
7.2,0.8875023750219659,0.8338297673745261,0.9474038222462071
7.3,0.8892495980471857,0.83628633959993115,0.9483625159973117
7.4,0.8909789184974266,0.8386553139161619,0.9492817983409572
7.5,0.8926903363726887,0.841013773365987,0.9502415855187346
7.6,0.8943838516729719,0.8433439447121023,0.951104590213715
7.7,0.8960594643982762,0.8456718624873948,0.9519298661103142
7.8,0.8977171745486021,0.847884624792091,0.9527382260234079
7.9,0.8993569821239489,0.8501371051183302,0.953625753153031
8,0.9009788871243166,0.8523702702340487,0.9544894584739854
8.1,0.9025828895497057,0.8545930592654981,0.9552963837175762
8.2,0.9041689894001159,0.8567126525334134,0.9561265374797019
8.3,0.9057371866755477,0.8588651859620988,0.9570154065466687
8.4,0.9072874813760003,0.8609110442426886,0.9578521178544304
8.5,0.9088198735014741,0.8629647519944605,0.9585609138372807
8.6,0.9103343630519689,0.8649912863076968,0.9593444279358418
8.7,0.9118309500274852,0.8670575958280229,0.9601365517365366
8.8,0.9133096344280227,0.8690129582166886,0.9609145324551055
8.9,0.9147704162535812,0.8710136504927322,0.961676525520395
9,0.9162132955041609,0.8729744068460883,0.9624008836366524
9.1,0.9176382721797616,0.8749587266164721,0.9631559640870765
9.2,0.9190453462803836,0.8769391903496272,0.9639162754561479
9.3,0.9204345178060271,0.8788053281394673,0.9647547480550973
9.4,0.9218057867566913,0.8806958273544299,0.965617671822462
9.5,0.9231591531323768,0.8825706834620228,0.9664252455635391
9.6,0.9244946169330834,0.8843800573575774,0.9673287665497472
9.7,0.9258121781588116,0.8861349967167722,0.9681519446448759
9.8,0.9271118368095608,0.8878549067581651,0.9688257438063066
9.9,0.9283935928853311,0.8896197467126408,0.9695280039811696
10,0.9296574463861225,0.8913615214859474,0.9703647283805912
10.1,0.9309033973119349,0.893073348863771,0.9712279715878813
10.2,0.9321314456627687,0.894744521775718,0.9720756196890641
10.3,0.9333415914386239,0.8964057208885384,0.9728678999335085
10.4,0.9345338346395002,0.8980797886483861,0.9735922767118719
10.5,0.9357081752653973,0.8996164256809925,0.9744300670578258
10.6,0.9368646133163157,0.9012891242778195,0.9751877598718355
10.7,0.9380031487922554,0.9029176634178138,0.9759285630047916
10.8,0.9391237816932165,0.9044123464615839,0.9765823456634708
10.9,0.9402265120191986,0.9058969954127281,0.9773058995078842
11,0.9413113397702016,0.9073601142282961,0.9779532263607127
11.1,0.9423782649462259,0.9088691774565124,0.978566495300623
11.2,0.9434272875472715,0.9102700641566017,0.979108072872817
11.3,0.9444584075733384,0.9117679990323109,0.9797658219083936
11.4,0.9454716250244262,0.9132172425956042,0.9804092772059461
11.5,0.9464669399005353,0.9145622586296891,0.9810567727255748
11.6,0.9474443522016655,0.915885668986101,0.9817315356297083
11.7,0.9484038619278168,0.9172542862201183,0.9823625993692879
11.8,0.9493454690789898,0.9186326159454432,0.9829315639015139
11.9,0.9502691736551834,0.9199194545856937,0.9835104961508413
12,0.9511749756563983,0.9211624883371178,0.9839611454183044
12.1,0.9520628750826343,0.9224024567783857,0.9843821513372437
12.2,0.9529328719338916,0.9236598659784141,0.9848559401608432
12.3,0.9537849662101704,0.9247736843794017,0.985344347162862
12.4,0.95461915791147,0.9258850970649195,0.9858134205500798
12.5,0.9554354470377908,0.9270573613560562,0.9863146560224845
12.6,0.9562338335891327,0.9282269085078838,0.9867854132123854
12.7,0.9570143175654958,0.9293555091294556,0.9872811940899321
12.8,0.9577768989668805,0.9303892820951609,0.9877567482529619
12.9,0.9585215777932858,0.9314061364062171,0.9881900495012783
13,0.9592483540447125,0.9324107555336574,0.9885781935570797
13.1,0.9599572277211603,0.9333907075924326,0.9889442285966994
13.2,0.9606481988226294,0.9343543479933034,0.9892757242358096
13.3,0.9613212673491198,0.9353989918564789,0.9895599286487028
13.4,0.9619764333006311,0.9364632058572058,0.9898348239762458
13.5,0.9626136966771638,0.9374939966731999,0.9901021839395893
13.6,0.9632330574787173,0.9385311671479197,0.9903880979551709
13.7,0.9638345157052923,0.9394032647502055,0.9906473646179408
13.8,0.9644180713568886,0.9402574180392217,0.9908676153028775
13.9,0.9649837244335059,0.9411314175551904,0.991041319514658
14,0.9655314749351442,0.9419424005278599,0.9911835084063767
14.1,0.9660613228618038,0.9427620066856381,0.991367505235186
14.2,0.9665732682134847,0.9435415510095184,0.9915726492307653
14.3,0.9670673109901868,0.9443120760498556,0.9917335629398045
14.4,0.9675434511919099,0.945054095892298,0.991819370010936
14.5,0.9680016888186542,0.9457401727045258,0.9919822695746656
14.6,0.9684420238704197,0.9464249027883515,0.9920862811613668
14.7,0.9688644563472064,0.947095386315038,0.9921104565055969
14.8,0.9692689862490145,0.9477368618464809,0.992218364485894
14.9,0.9696556135758434,0.9483683055453136,0.9923548545889019
15,0.9700243383276936,0.9489825003204607,0.9924417121537883
15.1,0.9703751605045648,0.9495645082883779,0.9925033244341649
15.2,0.9707080801064575,0.9501218499401907,0.992511107757265
15.3,0.9710230971333713,0.9506576564931226,0.9925148126871715
15.4,0.9713202115853062,0.951191345549802,0.9925660113296879
15.5,0.9715994234622624,0.9516931787874238,0.9925647707826499
15.6,0.9718607327642395,0.9522190441672492,0.9925285322657473
15.7,0.972104139491238,0.9527936767047072,0.9924589021464523
15.8,0.9723296436432577,0.9532917279443338,0.9923995712448419
15.9,0.9725372452202985,0.9536793038493157,0.9922589540794061
16,0.9727269442223604,0.9540378211840423,0.9920971983499901
16.1,0.9728987406494434,0.9544199070051509,0.9920423113226273
16.2,0.9730526345015478,0.9548384143029435,0.9919256635109259
16.3,0.9731886257786734,0.9552920129993236,0.9917438383324761
16.4,0.9733067144808201,0.9556935656400221,0.9915378823319814
16.5,0.973406900607988,0.9560860482226547,0.991321428076066
16.6,0.9734891841601767,0.956397611649056,0.9911619600115038
16.7,0.973553565137387,0.9566460901889771,0.9909912796157554
16.8,0.9736000435396186,0.9569726131212324,0.9906944525585089
16.9,0.9736286193668711,0.9572989092826794,0.9904365264393519
17,0.9736392926191447,0.9575483286729247,0.9901551857080453
17.1,0.9736320632964395,0.9577637354589337,0.989835982736782
17.2,0.9736069313987556,0.9578989144607347,0.9895720450755416
17.3,0.9735638969260929,0.9580036133334169,0.9892803996565236
17.4,0.9735029598784514,0.9581277728036095,0.9889416214967013
17.5,0.973424120255831,0.9582694038417465,0.9886393090939766
17.6,0.9733273780582317,0.9583881484086282,0.9882794272557129
17.7,0.9732127332856536,0.9585100410371419,0.9879032589530989
17.8,0.9730801859380969,0.9585221798275141,0.9874872214216412
17.9,0.9729297360155611,0.9585700824151995,0.987150027786441
18,0.9727613835180466,0.9585214468266123,0.98683358397995
18.1,0.972575128445553,0.9584913018046886,0.9864251184131176
18.2,0.972370970798081,0.9584391462740757,0.9860237053909582
18.3,0.9721489105756301,0.9584271838578414,0.985635926520221
18.4,0.9719089477782002,0.9582737435636284,0.9852851754407139
18.5,0.9716510824057916,0.9580718009403586,0.9848113103062037
18.6,0.971375314458404,0.957865180547147,0.984369461274256
18.7,0.9710816439360377,0.9577728831844046,0.9839919766722058
18.8,0.9707700708386927,0.9575773884076026,0.983584283293796
18.9,0.9704405951663688,0.9573123934024614,0.9831212999936232
19,0.9700932169190659,0.9570968206478325,0.9826144395086804
19.1,0.9697279360967843,0.956874380335685,0.9821350711013106
19.2,0.9693447526995238,0.9566023536057695,0.9815218252907558
19.3,0.9689436667272848,0.9562229730502136,0.9809734310697047
19.4,0.9685246781800666,0.9558565754100606,0.9805551256132878
19.5,0.9680877870578697,0.9555556558992486,0.9801069940143953
19.6,0.9676329933606939,0.9551463486647058,0.979593252690139
19.7,0.9671602970885393,0.9547536154025045,0.9790226813615659
19.8,0.9666696982414061,0.9542895734351907,0.9782631545687874
19.9,0.9661611968192939,0.9538309943791474,0.9775943097247586
20,0.9656347928222029,0.9533369603010161,0.9770919919660268
20.1,0.9650904862501328,0.952810196855917,0.9766246618256722
20.2,0.9645282771030843,0.9522499366499443,0.976141815382588
20.3,0.9639481653810569,0.951655434521651,0.9755993944055541
20.4,0.9633501510840505,0.9510836618662738,0.9749369144948687
20.5,0.9627342342120654,0.9504442284300395,0.9743964522174497
20.6,0.9621004147651013,0.9498973111856005,0.9737586329459307
20.7,0.9614486927431585,0.9493073205931507,0.9731393821075138
20.8,0.960779068146237,0.9485875292524153,0.9724318553803057
20.9,0.9600915409743366,0.9478617591669927,0.9718190966840714
21,0.9593861112274573,0.9471095759253448,0.9711018477435038
21.1,0.9586627789055991,0.9463898236018401,0.9703688915613233
21.2,0.9579215440087622,0.9455966985038196,0.9696169337784483
21.3,0.9571624065369466,0.9448892718357498,0.9689937071985569
21.4,0.9563853664901518,0.9441379575425424,0.9682838834240088
21.5,0.9555904238683786,0.9432868349408116,0.9676220511441289
21.6,0.9547775786716263,0.9424185258820919,0.9669737192669148
21.7,0.9539468308998952,0.9415923827155555,0.9662814738844685
21.8,0.9530981805531855,0.940769490576465,0.9655341912984388
21.9,0.9522316276314966,0.9398354104109674,0.9648387971652732
22,0.9513471721348292,0.9388883029100407,0.9640415779915759
22.1,0.9504448140631827,0.9379241359936615,0.9631290226569705
22.2,0.9495245534165576,0.937004737258626,0.9622629652461171
22.3,0.9485863901949538,0.9359625187617469,0.961389682886044
22.4,0.9476303243983708,0.9348811119086378,0.9604642808596149
22.5,0.9466563560268093,0.9338283564389125,0.9595171586143514
22.6,0.9456644850802687,0.9328205716446225,0.9586535549484543
22.7,0.9446547115587494,0.9317338091321186,0.9577574114034522
22.8,0.9436270354622515,0.9307111007648423,0.9568114275128657
22.9,0.9425814567907744,0.9296085483956034,0.9559146069705375
23,0.9415179755443188,0.9284847451988073,0.9550040000064812
23.1,0.9404365917228841,0.927360971824587,0.9539867450432344
23.2,0.9393373053264706,0.9261369094003368,0.952941550854272
23.3,0.9382201163550785,0.9249089560515722,0.9519994316215146
23.4,0.9370850248087073,0.9237187941442369,0.951044558513156
23.5,0.9359320306873575,0.9224832597730039,0.950004236939135
23.6,0.9347611339910287,0.9212073385530735,0.9490115480421558
23.7,0.9335723347197212,0.9199027888934572,0.947914122008909
23.8,0.9323656328734349,0.9185741092199129,0.9468385693865546
23.9,0.9311410284521696,0.9171823731975735,0.9457489505511971
24,0.9298985214559258,0.9157586920507808,0.9446972558510786
24.1,0.9286381118847027,0.9144188843114864,0.9436634643044846
24.2,0.9273597997385011,0.9128524980849579,0.9425687258662421
24.3,0.9260635850173208,0.911387987753134,0.9413673890292508
24.4,0.9247494677211614,0.9099264930322297,0.9401441064019868
24.5,0.9234174478500233,0.9083120393527366,0.9390854863631559
24.6,0.9220675254039062,0.9067521334170364,0.9380190493156997
24.7,0.9206997003828105,0.9052193792410352,0.9368481114459897
24.8,0.919313972786736,0.9035970809290685,0.9356325088960018
24.9,0.9179103426156824,0.9019952608629931,0.9344350499289724
25,0.9164888098696503,0.9003777610423764,0.9332074481875967
25.1,0.9150493745486391,0.8987544543925774,0.9319689293359512
25.2,0.9135920366526492,0.8971144002056859,0.9306944348686589
25.3,0.9121167961816805,0.8954541778782286,0.9294429128311492
25.4,0.9106236531357329,0.8938034947876183,0.9282994336928444
25.5,0.9091126075148066,0.8920726798018314,0.9271050810258512
25.6,0.9075836593189013,0.8903221210164689,0.9257972521515399
25.7,0.9060368085480173,0.8885009018174781,0.9244873975482581
25.8,0.9044720552021546,0.8867462948368998,0.9231766371414867
25.9,0.9028893992813127,0.8848678844016059,0.9217872385853109
26,0.9012888407854923,0.882884374982902,0.9204610633388448
26.1,0.8996703797146928,0.8808689540153241,0.919241332175231
26.2,0.8980340160689148,0.8789538178313407,0.917920467961076
26.3,0.8963797498481578,0.8771477058886048,0.9165261834635298
26.4,0.8947075810524219,0.875181453643116,0.9150668253268464
26.5,0.8930175096817075,0.8731654976219713,0.913589713830551
26.6,0.8913095357360139,0.8711250340005772,0.9121477830573967
26.7,0.8895836592153417,0.8690435607599838,0.910656663277059
26.8,0.8878398801196906,0.8670634004085923,0.909168844474359
26.9,0.88607819844906055,0.8649667409877838,0.9076554732322262
27,0.8842986142034519,0.8629403105766806,0.9061098199492414
27.1,0.8825011273828642,0.8608622845565045,0.9045414511718073
27.2,0.8806857379872979,0.8587594642416717,0.9029534749421249
27.3,0.8788524460167527,0.8566397195452886,0.901354767548902
27.4,0.8770012514712285,0.8545754841659741,0.8997176362316344
27.5,0.8751321543507258,0.8525029020893318,0.8980991125759353
27.6,0.873245154655244,0.8504140619786662,0.8964904465201169
27.7,0.8713402523847835,0.8483089638339774,0.8949208034787265
27.8,0.8694174475393442,0.846187607655265,0.8932908038807091
27.9,0.8674767401189258,0.8440406375858449,0.8916485745526548
28,0.8655181301235291,0.8417947848841946,0.8900329266993277
28.1,0.863541617553153,0.8395299372666865,0.8883635037647548
28.2,0.8615472024077984,0.8372214935102675,0.886737781042734
28.3,0.8595348846874651,0.8348967744550715,0.8849671758587803
28.4,0.8575046643921527,0.8325610890106463,0.883341007574447
28.5,0.8554565415218617,0.8301472165714965,0.8817511575692242
28.6,0.8533905160765916,0.8276984388943394,0.8801074522756329
28.7,0.85130658805634285,0.8253033186070808,0.8785083484345855
28.8,0.8492047574611153,0.8228968359861932,0.8768820256240843
28.9,0.8470850242909087,0.8204471868335902,0.8752029565742041
29,0.8449473885457237,0.8180663105693053,0.8735042937602956
29.1,0.8427918502255595,0.8156327857700074,0.8717912798609309
29.2,0.8406184093304165,0.8131017553081412,0.8700045920311463
29.3,0.838427065860295,0.8105032222872388,0.8682082569426974
29.4,0.8362178198151943,0.807893001008041,0.8665056658065261
29.5,0.833990671195115,0.8053717944873957,0.8647744722915776
29.6,0.8317456200000567,0.8027839771412876,0.8629720972686549
29.7,0.8294826662300196,0.8002462456080872,0.8611817206960788
29.8,0.827201809885004,0.797652401333828,0.8592324584881873
29.9,0.8249030509650092,0.7949931216941653,0.8573455474325138
30,0.8225863894700358,0.7923035640341349,0.8554446139642914
30.1,0.8202518254000832,0.7896345007762646,0.8535305279683688
30.2,0.8178993587551522,0.7869196906845709,0.851605960443838
30.3,0.8155289895352424,0.7840737816686262,0.8496607061348198
30.4,0.8131407177403533,0.7812134434237459,0.8476526143601804
30.5,0.8107345433704859,0.7784457560497932,0.8456393862457947
30.6,0.8083104664256393,0.7756178073608402,0.8435938440096795
30.7,0.8058684869058141,0.7727671345667146,0.8415429289426118
30.8,0.8034086048110102,0.7698967069065339,0.8394658115458455
30.9,0.8009308201412271,0.7670065243802974,0.8374288686896202
31,0.7984351328964654,0.7640876486194172,0.8353431028611492
31.1,0.7959215430767248,0.761131449150038,0.8332278312771795
31.2,0.7933900506820054,0.758186243220276,0.831152465996642
31.3,0.7908406557123073,0.7552058773308505,0.8290705815675226
31.4,0.7882733581676301,0.7522096016571194,0.8269190520335944
31.5,0.7856881580479744,0.7491964373837061,0.8247760849504971
31.6,0.7830850553533395,0.7461639343284898,0.8226905357975243
31.7,0.7804640500837261,0.7431046322853636,0.8206853501088992
31.8,0.7778251422391338,0.74000042074469,0.8186159183148531
31.9,0.7751683318195626,0.7368762370209044,0.8164673802888078
32,0.7724936188250127,0.7337442104169667,0.8143032938746932
32.1,0.7698010032554836,0.7305789423820663,0.8120984459133505
32.2,0.7670904851109761,0.7273801690159369,0.8098751470217098
32.3,0.7643620643914898,0.7241738303178971,0.8076178390530413
32.4,0.7616157410970243,0.7209733472876507,0.8054174952311953
32.5,0.7588515152275803,0.7177777025127581,0.8032116868098562
