temp,mean,conf_lower,conf_upper
0,0.8270511460020822,0.7419725381405184,0.9160257680235977
0.1,0.8277009152073197,0.742974479131159,0.9163734184928415
0.2,0.8283423901848708,0.7440469072534255,0.9167194083473538
0.3,0.8289755709347353,0.7449126243408615,0.9171360627253374
0.4,0.8296004574569131,0.7458047538449978,0.917454763604216
0.5,0.8302170497514043,0.7467292386418973,0.9178050653915683
0.6,0.830825347818209,0.7475177714415642,0.9180787315635992
0.7,0.8314253516573271,0.7482937068687038,0.918378470837389
0.8,0.8320170612687589,0.7490478258722296,0.918725105919971
0.9,0.8326004766525038,0.7498166464286966,0.9189598621721085
1,0.8331755978085622,0.75063603852048,0.9193115233054542
1.1,0.833742424736934,0.7514778053489279,0.9197122753031164
1.2,0.8343009574376192,0.7522613625685599,0.9200378263946991
1.3,0.834851195910618,0.752943005367863,0.9204061841816047
1.4,0.83539314015593,0.7537279049758374,0.920769954622807
1.5,0.8359267901735554,0.7545413878957393,0.9210884087996454
1.6,0.8364521459634944,0.7552457298056203,0.921363989965268
1.7,0.8369692075257468,0.7558927361104218,0.921714426488673
1.8,0.8374779748603125,0.7567084114555841,0.9219911461494752
1.9,0.8379784479671917,0.757398516188637,0.9222783736389577
2,0.8384706268463844,0.7580125702065463,0.9225406892673134
2.1,0.8389545114978905,0.7587131485166427,0.9228002405040066
2.2,0.8394301019217099,0.759454329475624,0.923072802178021
2.3,0.8398973981178428,0.7602202301908556,0.9232968822200618
2.4,0.8403564000862891,0.7608185964019046,0.9235416277936999
2.5,0.8408071078270487,0.7613752017264388,0.9237848983394639
2.6,0.8412495213401219,0.7619718147346842,0.9240115491035494
2.7,0.8416836406255085,0.762504082111302,0.9242381626676526
2.8,0.8421094656832084,0.7630123294584268,0.9244424705432774
2.9,0.8425269965132218,0.7635089872026768,0.9246356571222747
3,0.8429362331155488,0.7640030898461787,0.9247984033463015
3.1,0.843337175490189,0.7644845082458785,0.9250474817423506
3.2,0.8437298236371427,0.764957668810238,0.9252427851102236
3.3,0.8441141775564098,0.765481529993865,0.925394954385016
3.4,0.8444902372479903,0.7658762279157268,0.9256126483784075
3.5,0.8448580027118842,0.7662596822872872,0.9258158119775604
3.6,0.8452174739480915,0.7666001228509217,0.9260379278012381
3.7,0.8455686509566123,0.7669730963973327,0.9263112394399236
3.8,0.8459115337374465,0.7673766017896129,0.9266018260116093
3.9,0.8462461222905941,0.7677373072912161,0.9268955650927118
4,0.8465724166160552,0.7681145642235039,0.9271867329093249
4.1,0.8468904167138297,0.7684352559836252,0.92746706970259
4.2,0.8472001225839175,0.7688068886141914,0.9277202128178836
4.3,0.847501534226319,0.7692047206715229,0.9279532756200728
4.4,0.8477946516410336,0.7695072433385242,0.9281018661928413
4.5,0.8480794748280618,0.7698457340879064,0.9283136324361079
4.6,0.8483560037874034,0.7701077508758916,0.9284542985568707
4.7,0.8486242385190583,0.7705130775468672,0.9288052475105015
4.8,0.8488841790230268,0.7707554986225995,0.9290003068613364
4.9,0.8491358252993086,0.770976149990201,0.9292920915554301
5,0.8493791773479039,0.771250503200886,0.9294469031871844
5.1,0.8496142351688125,0.771519496496296,0.9297199046682831
5.2,0.8498409987620346,0.771775567196165,0.9299222932944373
5.3,0.8500594681275703,0.7720977642988203,0.9301201297942765
5.4,0.8502696432654192,0.7722566771489783,0.9304011428839141
5.5,0.8504715241755815,0.7724046149561785,0.9305778215998628
5.6,0.8506651108580573,0.7725451414179887,0.930874065513184
5.7,0.8508504033128463,0.772747484929404,0.9309800293491579
5.8,0.8510274015399493,0.772862925883685,0.9310693165191455
5.9,0.8511961055393652,0.7730405018696833,0.9312051335093192
6,0.8513565153110947,0.7731041154653946,0.9314101387134395
6.1,0.8515086308551376,0.7732659949483085,0.9316193287495198
6.2,0.8516524521714939,0.7733682472098599,0.9318117130830474
6.3,0.8517879792601637,0.7734209469723776,0.9320041972966464
6.4,0.8519152121211468,0.7735087450513645,0.9322329924815724
6.5,0.8520341507544433,0.7735726353650045,0.9324525131512635
6.6,0.8521447951600534,0.7736332815741831,0.932658380757206
6.7,0.8522471453379767,0.7736836558179795,0.9328275709919935
6.8,0.8523412012882139,0.773763321408883,0.9329791873913742
6.9,0.8524269630107639,0.7737724222097699,0.9330660067865073
7,0.8525044305056277,0.7737825647537593,0.9331109100936652
7.1,0.8525736037728048,0.7737944964209917,0.9333796106825416
7.2,0.8526344828122953,0.7738024143207096,0.9334702455320767
7.3,0.8526870676240994,0.7738048939153213,0.9336303112269932
7.4,0.8527313582082167,0.7737968190619995,0.9337200196259343
7.5,0.8527673545646475,0.7738199913094699,0.9338428028098373
7.6,0.8527950566933917,0.7738239079935774,0.9339447569669046
7.7,0.8528144645944492,0.773846564194577,0.9339483200152274
7.8,0.8528255782678206,0.7738474815848699,0.9340071566964034
7.9,0.8528283977135049,0.7737232970689599,0.9340558652682378
8,0.8528229229315029,0.7736357768026627,0.9341130803385012
8.1,0.8528091539218141,0.7735654196370274,0.934212881870327
8.2,0.8527870906844387,0.7735302338909871,0.9343010869214132
8.3,0.8527567332193772,0.7734485076834596,0.9343236587568353
8.4,0.8527180815266286,0.773378055074993,0.93430058639336
8.5,0.8526711356061937,0.7732989676927984,0.9342668769972569
8.6,0.8526158954580721,0.773182416667866,0.9342467840793118
8.7,0.8525523610822638,0.7730605871176226,0.9342502140405902
8.8,0.8524805324787693,0.7729790341289178,0.9342434053202247
8.9,0.8524004096475879,0.7728682125582367,0.9342263579182148
9,0.85231199258872,0.7727987364394715,0.934199071834561
9.1,0.8522152813021656,0.7725771510453336,0.9341924648761915
9.2,0.8521102757879244,0.7724800017536906,0.9341756158110937
9.3,0.8519969760459971,0.7723319051977509,0.9341468689770784
9.4,0.8518753820763828,0.7722342305908056,0.9341061069032917
9.5,0.851745493879082,0.7720823716582166,0.934053301590918
9.6,0.8516073114540947,0.7719164629559592,0.9339885620321402
9.7,0.8514608348014207,0.7717653398432048,0.9339107507380362
9.8,0.8513060639210603,0.7716411531976428,0.9337696459267852
9.9,0.8511429988130131,0.771497156605239,0.9336187973224666
10,0.8509716394772795,0.771305693499136,0.9334569394756931
10.1,0.8507919859138593,0.7710999858643841,0.9332845115259134
10.2,0.8506040381227524,0.7709275880854096,0.933099744721891
10.3,0.8504077961039591,0.7707228648211061,0.9329321312847441
10.4,0.8502032598574791,0.7705124296376729,0.9327399184945189
10.5,0.8499904293833125,0.7702670078418787,0.9325806842188069
10.6,0.8497693046814594,0.7700158163724324,0.9324083731435382
10.7,0.8495398857519196,0.7697598331232623,0.932224802059539
10.8,0.8493021725946934,0.7695197189301866,0.9319886580664707
10.9,0.8490561652097806,0.7692840169489834,0.9317400746017095
11,0.8488018635971811,0.7690121852909153,0.9314949745846282
11.1,0.8501014020076563,0.771013612823558,0.932067483328199
11.2,0.8513843519627583,0.7729856913348127,0.9326495572074099
11.3,0.8526507134624873,0.7749634718025471,0.9332071212270376
11.4,0.8539004865068429,0.7769243891960347,0.9337064183752171
11.5,0.8551336710958256,0.7788309953567469,0.9341906270131343
11.6,0.856350267229435,0.780712200974722,0.9347047349819718
11.7,0.8575502749076712,0.7825673456217261,0.9352328960090024
11.8,0.8587336941305345,0.7844134316563647,0.9358170594133028
11.9,0.8599005248980244,0.7862174778342645,0.9363646272590729
12,0.8610507672101412,0.7880138759026856,0.9368233250265005
12.1,0.8621844210668848,0.7897907655239962,0.9372470304509257
12.2,0.8633014864682552,0.7915639433626913,0.9376511862849802
12.3,0.8644019634142527,0.79331761889429675,0.9381014749115008
12.4,0.8654858519048768,0.7950457937488868,0.9384973676950453
12.5,0.8665531519401277,0.7967597691753725,0.9388761186804215
12.6,0.8676038635200057,0.7984808503244327,0.9392551543825747
12.7,0.8686379866445103,0.800327322992652,0.9396461222515275
12.8,0.8696555213136419,0.8021541031803436,0.9400415522464571
12.9,0.8706564675274003,0.8038460250033689,0.9404344377503868
13,0.8716408252857855,0.8054752905549205,0.9408112174290295
13.1,0.8726085945887977,0.8070282328733382,0.9411708573998379
13.2,0.8735597754364364,0.8085553150583902,0.9415123880308076
13.3,0.8744943678287025,0.8100580650688852,0.941837038892072
13.4,0.8754123717655948,0.8115260449134228,0.9421452490545134
13.5,0.8763137872471144,0.8130993110950958,0.9424372662367996
13.6,0.8771986142732606,0.8146591669272243,0.9427130904389309
13.7,0.8780668528440337,0.8162090214164318,0.9429727216609072
13.8,0.8789185029594339,0.8177843824586066,0.9432161599027284
13.9,0.8797535646194605,0.8193208517184203,0.9434434051643948
14,0.8805720378241143,0.820844440888046,0.9436606937213459
14.1,0.8813739225733948,0.8222225138362491,0.9438052394192238
14.2,0.882159218867302,0.8236288381872438,0.9439507323891162
14.3,0.8829279267058363,0.8250827582422449,0.9441105624552901
14.4,0.8836800460889973,0.8265202072014203,0.9442036088081833
14.5,0.8844155770167852,0.827921997909716,0.9443507692987418
14.6,0.8851345194892,0.8292711334366295,0.9445036722317729
14.7,0.8858368735062414,0.8306004195604066,0.9446401298092151
14.8,0.88652263906791,0.8318139340405948,0.9446536906747516
14.9,0.8871918161742052,0.8329879622646903,0.9446114102746035
15,0.8878444048251273,0.8342826808239434,0.9446189913271914
15.1,0.8884804050206763,0.8355783493713189,0.9447328475632211
15.2,0.8890998167608519,0.8368220741823943,0.94483762763479
15.3,0.8897026400456547,0.8380237949414924,0.9448686858378526
15.4,0.8902888748750841,0.8392071861286245,0.9448263211423538
15.5,0.8908585212491404,0.8403265637067583,0.9447058744589143
15.6,0.8914115791678237,0.8414092025927196,0.9445959967445754
15.7,0.8919480486311335,0.8424757031462131,0.9446660509884676
15.8,0.8924679296390705,0.8434998463245472,0.9446510392718331
15.9,0.8929712221916339,0.8445068867607146,0.9446031070220233
16,0.8934579262888246,0.8454950972514788,0.9444986345277719
16.1,0.8939280419306419,0.8465383922975711,0.944484242443431
16.2,0.8943815691170861,0.8476908815341977,0.9443969863622717
16.3,0.8948185078481573,0.8488214404482053,0.944224445971515
16.4,0.8952388581238551,0.849870480278196,0.9440284558842688
16.5,0.8956426199441798,0.8508705518960561,0.9437811013542021
16.6,0.8960297933091315,0.8518212783432901,0.9436287654969004
16.7,0.8964003782187098,0.8527771963141655,0.9434603216671764
16.8,0.8967543746729152,0.8535435749692786,0.9432698610977912
16.9,0.8970917826717473,0.8543121431080603,0.9431195002962831
17,0.8974126022152062,0.8550303610172321,0.9429616938382823
17.1,0.8977168333032921,0.8556654235790031,0.942718532973239
17.2,0.8980044759360046,0.8563577165543402,0.9425613346763496
17.3,0.8982755301133443,0.8571631216562454,0.9423050604504462
17.4,0.8985299958353106,0.8579654832413919,0.9421193221590849
17.5,0.8987678731019036,0.8586780962412817,0.9418771783890119
17.6,0.8989891619131236,0.8593281896255622,0.9415449832947018
17.7,0.8991938622689704,0.860096001258895,0.9413121820720395
17.8,0.8993819741694443,0.8608234382050668,0.9410076020586653
17.9,0.8995534976145447,0.8614634224839299,0.9408447853963089
18,0.8997084326042721,0.8621164895706434,0.9405392366336792
18.1,0.8998467791386264,0.8627779600442621,0.9401160217989015
18.2,0.8999685372176074,0.8633020112451498,0.9397891948147663
18.3,0.9000737068412155,0.863805058277727,0.939445678751734
18.4,0.9001622880094502,0.8642503692586319,0.9391287512097282
18.5,0.9002342807223118,0.8647903682521396,0.9387611142257914
18.6,0.9002896849798001,0.8652077057216967,0.9383083906451344
18.7,0.9003285007819154,0.8656548674645292,0.9381499232132182
18.8,0.9003507281286577,0.8660547229354567,0.937800230496757
18.9,0.9003563670200266,0.8664626410661276,0.9375296483653397
19,0.9003454174560224,0.8668078979277706,0.9372638554886494
19.1,0.9003178794366451,0.8671187089689558,0.9370184805934159
19.2,0.9002737529618945,0.8673366970633037,0.9367947656209631
19.3,0.900213038031771,0.8677222494932665,0.936603438349297
19.4,0.9001357346462742,0.8679308786737466,0.9362506355106954
19.5,0.9000418428054041,0.868079925749647,0.9358871169243084
19.6,0.8999313625091611,0.8681975536710376,0.9355797285654881
19.7,0.8998042937575447,0.8683758533258348,0.9352558722353904
19.8,0.8996606365505555,0.8686359505355158,0.9348962924329203
19.9,0.8995003908881927,0.8687357648624148,0.9343759637641791
20,0.89932355677045706,0.8688448889855711,0.933840991247846
20.1,0.8991301341973481,0.8689433546964414,0.9335090007910705
20.2,0.8989201231688659,0.8689224056548221,0.9331407023594815
20.3,0.8986935236850109,0.8688278242538324,0.9326828757788339
20.4,0.8984503357457824,0.8687500012659819,0.9321964055387932
20.5,0.898190559351181,0.8686641513506501,0.9318013270308911
20.6,0.8979141945012061,0.8685884592734938,0.9313962248041721
20.7,0.8976212411958583,0.8684400340312863,0.9310268797627123
20.8,0.8973116994351374,0.8683375315957322,0.9306479003946577
20.9,0.8969855692190432,0.8681657317907282,0.9302932167220087
21,0.8966428505475759,0.8679487388001905,0.9298221446457708
21.1,0.8962835434207354,0.8676815672868694,0.929376123365113
21.2,0.8959076478385217,0.8673928092007845,0.9289357356841241
21.3,0.895515163800935,0.867100131975701,0.9284720159328834
21.4,0.895106091307975,0.8667346006018375,0.9279829782328421
21.5,0.8946804303596418,0.8664278929206686,0.9273865452624135
21.6,0.8942381809559357,0.8661109147475727,0.92671489543425
21.7,0.8937793430968561,0.8657805948129534,0.9261061856196999
21.8,0.8933039167824037,0.8653828052626817,0.9255490923610052
21.9,0.892811902012578,0.8648578693374058,0.9250984600006473
22,0.8923032987873791,0.8643472936591143,0.9246268042037693
22.1,0.8917781071068069,0.8638567567779105,0.9241624756659793
22.2,0.8912363269708616,0.8634214454846489,0.9235726224278445
22.3,0.8906779583795434,0.8627606422181101,0.9231552842169273
22.4,0.8901030013328519,0.862131122054502,0.9225863628474336
22.5,0.8895114558307873,0.86151517624521,0.9219992718790909
22.6,0.8889033218733494,0.8607544699539902,0.9213291578767099
22.7,0.8882785994605383,0.8600856462462527,0.9206787295573703
22.8,0.8876372885923545,0.8592989767987791,0.9201848510740135
22.9,0.8869793892687969,0.8584816488978511,0.919604053438601
23,0.8863049014898665,0.8577041129665619,0.9191163057241132
23.1,0.8856138252555629,0.8569381722062595,0.9185862814898227
23.2,0.8849061605658861,0.8561084396349183,0.9179754039181662
23.3,0.8841819074208364,0.8551657871922911,0.9174016806105462
23.4,0.8834410658204132,0.854307552603973,0.9168177175259362
23.5,0.8826836357646168,0.853527929502429,0.9161827857456761
23.6,0.8819096172534475,0.8526176059366333,0.9154993285229138
23.7,0.8811190102869049,0.8515708895672357,0.9148850742266472
23.8,0.8803118148649892,0.8506819001422308,0.9141914506364918
23.9,0.8794880309877003,0.8496138497561547,0.9135026824437298
24,0.8786476586550382,0.8486154708795572,0.9127820078889776
24.1,0.8777906978670031,0.8476340157780682,0.9120948605262718
24.2,0.8769171486235947,0.8465462787877001,0.9114228880729073
24.3,0.8760270109248134,0.8456024039624839,0.9106969784758985
24.4,0.8751202847706587,0.8444773077530678,0.9099862788988164
24.5,0.8741969701611307,0.8432194913502957,0.9092686487821904
24.6,0.8732570670962299,0.8420287421282291,0.9085289433722153
24.7,0.8723005755759556,0.8407812272617731,0.9077837452505875
24.8,0.8713274956003085,0.8394943022948516,0.9070107859288112
24.9,0.870337827169288,0.8381883927711062,0.906221249798737
25,0.8693315702828945,0.8368508188190918,0.9054234504448018
25.1,0.8683087249411277,0.8355165300548955,0.9047487929973919
25.2,0.8672692911439877,0.8341660966322755,0.9040148772801544
25.3,0.8662132688914748,0.832845099782244,0.903231420990447
25.4,0.8651406581835885,0.8313841601047696,0.9025087631385953
25.5,0.8640514590203292,0.829901197311316,0.9017668486117616
25.6,0.8629456714016965,0.8283644411442588,0.9010391600287091
25.7,0.8618232953276908,0.8268494383943005,0.9003579409799212
25.8,0.8606843307983121,0.825229605970661,0.8996892705833901
25.9,0.8595287778135601,0.8236593885268818,0.8990190264155324
26,0.8583566363734348,0.8219979235028745,0.8983414847024419
26.1,0.8571679064779365,0.8202731511265748,0.8976483856852598
26.2,0.8559625881270649,0.8186106913731714,0.8969233667093632
26.3,0.8547406813208206,0.8170389368200313,0.8961735411396186
26.4,0.8535021860592027,0.8153623713151366,0.8953345170597098
26.5,0.8522471023422116,0.8137143907543851,0.8944711176191837
26.6,0.8509754301698476,0.8119789397853143,0.8935085513072646
26.7,0.8496871695421102,0.8103405157009376,0.8927504873774207
26.8,0.848382320459,0.808461920789347,0.8919013534251506
26.9,0.8470608829205163,0.8066375304232125,0.8912660138272357
27,0.8457228569266597,0.8049042295083102,0.8904850171705291
27.1,0.8443682424774297,0.803155496458722,0.8897576393267139
27.2,0.8429970395728265,0.801385646027229,0.8888498747222133
27.3,0.8416092482128505,0.7996723230681388,0.8879297661443283
27.4,0.8402048683975012,0.7977619852882039,0.8870830568673087
27.5,0.8387839001267785,0.795817157242695,0.8861246448067541
27.6,0.8373463434006829,0.793853957283168,0.8852800756491501
27.7,0.8358921982192139,0.791988361648287,0.8842395041197766
27.8,0.8344214645823722,0.7900344495268723,0.8831765336299953
27.9,0.832934142490157,0.7881321286379233,0.882154370665978
28,0.8314302319425686,0.7861053015594353,0.8811956736214852
28.1,0.8299097329396071,0.7841573849690907,0.8802354391145307
28.2,0.8283726454812724,0.782124956496224,0.8792526766106016
28.3,0.826818969567565,0.7800322923053605,0.878264291692322
28.4,0.8252487051984838,0.7779640432120024,0.8773064954509475
28.5,0.8236618523740298,0.7757300525789856,0.8764010058911631
28.6,0.8220584110942025,0.7734552857701895,0.8755258104026463
28.7,0.8204383813590019,0.7711582583144514,0.87460927833975
28.8,0.8188017631684288,0.7689312920854299,0.8736705132382216
28.9,0.8171485565224819,0.7666843872730651,0.8726622919292206
29,0.815478761421162,0.7644274875887371,0.8716074953290195
29.1,0.8137923778644689,0.7621613404125869,0.8707718368073116
29.2,0.8120894058524026,0.7598872717125038,0.8698056096552135
29.3,0.8103698453849636,0.7575973387044432,0.8688083080352615
29.4,0.808633696462151,0.7552858751105624,0.8677879460616031
29.5,0.8068809590839653,0.7529946824795877,0.8667960840223673
29.6,0.8051116332504065,0.7506732581473636,0.8657788181057563
29.7,0.8033257189614743,0.7483595971941451,0.8646585862298616
29.8,0.8015232162171696,0.7460132212923338,0.8635890531362809
29.9,0.7997041250174912,0.7435307673464329,0.8624990860994416
30,0.7978684453624397,0.7410740015122586,0.8614100379128491
30.1,0.796016177252015,0.7386234226408595,0.8603589169045593
30.2,0.7941473206862171,0.736197039051169,0.8592915401322696
30.3,0.7922618756650466,0.7336719830961702,0.8581421651831522
30.4,0.7903598421885023,0.7311263792196835,0.856855979304756
30.5,0.7884412202565851,0.728598282881864,0.855552765380228
30.6,0.7865060098692948,0.726065220936521,0.8542531788815723
30.7,0.784554211026631,0.7235160164196466,0.8529715412043747
30.8,0.7825858237285945,0.7209962244180905,0.851673922045364
30.9,0.7806008479751847,0.7182962920174928,0.8503600226716845
31,0.7785992837664015,0.7155647689361371,0.8490302952435074
31.1,0.7765811311022455,0.7126687385835402,0.8477156575677607
31.2,0.774546389982716,0.7099757455639129,0.8463851884124318
31.3,0.7724950604078138,0.7072476132627444,0.8450372321153317
31.4,0.7704271423775381,0.7045836927241096,0.8437442710516557
31.5,0.7683426358918892,0.7018947269584586,0.8424671843211919
31.6,0.7662415409508673,0.6991808188357717,0.8410642631947377
31.7,0.764123857554472,0.6964708037152203,0.8396401259444797
31.8,0.761989585702704,0.6937768324744941,0.8381471867429504
31.9,0.7598387253955625,0.6910529547924255,0.8366389953142297
32,0.7576712766330479,0.6882723915150684,0.83511428620893
32.1,0.7554872394151602,0.6854667028283191,0.8335734985665001
32.2,0.7532866137418992,0.6826834431166042,0.8320148636357034
32.3,0.7510693996132654,0.6798569770388174,0.8304678736376583
32.4,0.7488355970292581,0.6770139181611576,0.8288907758524108
32.5,0.7465852059898777,0.674124991790394,0.8273411481475523
