temp,mean,conf_lower,conf_upper
0,0.8623979933761854,0.7688296974545255,0.9534375547266347
0.1,0.863584896275668,0.770437832283176,0.954192675235022
0.2,0.8647618240288389,0.7720353532661903,0.9549405681985954
0.3,0.8659287766356981,0.7736203340835521,0.9556812336173546
0.4,0.8670857540962457,0.7751927747352614,0.9564111435873388
0.5,0.8682327564104815,0.7767526752213176,0.957131284238941
0.6,0.8693697835784056,0.7782706700392313,0.9577800545979656
0.7,0.870496835600018,0.7798045841080095,0.9583813620374466
0.8,0.8716139124753186,0.7813254759046518,0.9589765155807157
0.9,0.8727210142043076,0.7827942689350478,0.9596124624459781
1,0.8738181407869848,0.7842510016694297,0.9603127244580774
1.1,0.8749052922233505,0.7856956741077976,0.9610041848988218
1.2,0.8759824685134043,0.7871282862501513,0.9616883342930984
1.3,0.8770496696571465,0.7885488380964911,0.9623651726409075
1.4,0.878106895654577,0.7899846298596318,0.9630346999422488
1.5,0.8791541465056957,0.7914700784522566,0.96369691619712206
1.6,0.8801914222105027,0.7929423774792366,0.9643518214055278
1.7,0.881218722768998,0.794401526940572,0.964988795208858
1.8,0.8822360481811817,0.7958475268362626,0.9655858933557411
1.9,0.8832433984470536,0.7972665516385469,0.9662119432148473
2,0.8842407735666138,0.7986856083927354,0.9669069974870592
2.1,0.8852281735398624,0.8000917567752253,0.9675320458815015
2.2,0.8862055983667992,0.8014849967860166,0.9681479316435011
2.3,0.8871730480474243,0.802865328425109,0.9687509827459524
2.4,0.8881305225817377,0.8042327516925032,0.9693467181737938
2.5,0.8890780219697394,0.8055220002195517,0.9699233049248266
2.6,0.8900155462114294,0.8067789211816682,0.9705212631564157
2.7,0.8909430953068078,0.808026607430732,0.9711020932804248
2.8,0.8918606692558744,0.8092655506816597,0.9716740421654688
2.9,0.8927682680586293,0.8104811892430202,0.9722353670084991
3,0.8936658917150724,0.8117313299956501,0.97278857922764606
3.1,0.8945535402252038,0.8129706453039471,0.9733344680859402
3.2,0.8954312135890237,0.8141584956401744,0.9738752109915143
3.3,0.8962989118065317,0.8153355002652198,0.9744290078062128
3.4,0.8971566348777282,0.8165002577243963,0.9749585892232535
3.5,0.8980043828026127,0.81765751763264,0.9754544291810485
3.6,0.8988421555811856,0.818825540646902,0.9760198873376373
3.7,0.8996699532134471,0.8199499718709253,0.9765525754842463
3.8,0.9004877756993965,0.8210291958815741,0.9770401479891397
3.9,0.9012956230390343,0.8221291348846606,0.9774617477905863
4,0.9020934952323605,0.8232283973209139,0.9779268329949464
4.1,0.9028813922793748,0.8244055768251338,0.9784001955723662
4.2,0.9036593141800777,0.8255697500991707,0.9789047860304743
4.3,0.9044272609344686,0.8266851490550017,0.9793415802270173
4.4,0.905185232542548,0.8277538493196344,0.9797744548925065
4.5,0.9059332290043154,0.8289175050074222,0.9801487067180108
4.6,0.9066712503197714,0.830030476412517,0.9806174699024965
4.7,0.9073992964889157,0.8310844123404871,0.9810862526021507
4.8,0.9081173675117482,0.8320729733025298,0.9815082423679924
4.9,0.9088254633882689,0.8330504154998486,0.9819230205433815
5,0.9095235841184779,0.8340107003175878,0.9823817434639288
5.1,0.9102117297023753,0.8349531386003078,0.9828806366134744
5.2,0.9108899001399611,0.8358897040598491,0.9833001701187158
5.3,0.911558095431235,0.8367762917818726,0.9837209259146549
5.4,0.9122163155761973,0.837736478780143,0.9840714005479727
5.5,0.9128645605748478,0.8386183602938679,0.9844114822320347
5.6,0.9135028304271866,0.839480062707673,0.9847969987950489
5.7,0.9141311251332138,0.8403753881114883,0.9850947604346005
5.8,0.9147494446929294,0.8411994971495362,0.9854699708122652
5.9,0.9153577891063331,0.8420648204751613,0.9858557886087367
6,0.915956158373425,0.8428817301760102,0.9862267524872697
6.1,0.9183299641723902,0.8460701807043451,0.9877953051985299
6.2,0.9206838196787321,0.8493465533815823,0.9893972835127436
6.3,0.9230177248924507,0.852517941297921,0.9910099112968163
6.4,0.9253316798135456,0.8555967570933126,0.9926258932960268
6.5,0.9276256844420171,0.8587300549817166,0.9940335929325701
6.6,0.9298997387778654,0.8617400755960011,0.9955379683703911
6.7,0.9321538428210903,0.864761120613622,0.9969797103397833
6.8,0.9343879965716915,0.8677853971847949,0.9985139045801521
6.9,0.9366022000296697,0.8707455397148478,1.0000299552953442
7,0.9387964531950239,0.8736630807271186,1.0015462429054862
7.1,0.9409707560677552,0.8765060009143666,1.0030061890229054
7.2,0.9431251086478629,0.8794869082855485,1.0043983535533898
7.3,0.9452595109353472,0.8822428005185308,1.0058632646466026
7.4,0.9473739629302083,0.8850799226897932,1.0072700066229867
7.5,0.9494684646324456,0.8878671096755473,1.0086629531838338
7.6,0.9515430160420597,0.8906586056772157,1.010051438721661
7.7,0.9535976171590506,0.8933323741166229,1.0115154045170465
7.8,0.9556322679834176,0.8960229441492402,1.012950467461507
7.9,0.9576469685151616,0.8987499033518925,1.0143953265581003
8,0.9596417187542821,0.9014952982863862,1.0157365642761254
8.1,0.961616518700779,0.9041438721306483,1.0170581086712098
8.2,0.9635713683546528,0.9067679623356072,1.0184173547035598
8.3,0.965506267715903,0.9095032505548477,1.0197658423219595
8.4,0.9674212167845297,0.9121080519785643,1.021097174024446
8.5,0.9693162155605332,0.9146590190577364,1.022410268299047
8.6,0.9711912640439131,0.917275536638272,1.0236991510497593
8.7,0.9730463622346699,0.9198590866930442,1.0249708435300886
8.8,0.9748815101328029,0.9222203495550358,1.0262534304375244
8.9,0.9766967077383127,0.9245177362802947,1.0274765166329747
9,0.978491955051199,0.9269110759455065,1.0287060576485032
9.1,0.980267252071462,0.9293033285989022,1.0299456976375054
9.2,0.9820225987991016,0.9316647579218765,1.0311837745345183
9.3,0.9837579952341177,0.9340160997703166,1.032336552768863
9.4,0.9854734413765105,0.9363755845519784,1.0334618563300761
9.5,0.9871689372262796,0.938631085776916,1.0346560972264927
9.6,0.9888444827834255,0.9409837434378032,1.0357976935133566
9.7,0.9905000780479482,0.9432797848218639,1.0369066034155672
9.8,0.9921357230198471,0.9455103927071089,1.0380747730133453
9.9,0.9937514176991229,0.9477590818428214,1.0392408153017123
10,0.995347162085775,0.9499587009819956,1.0403978422212043
10.1,0.996922956179804,0.9520027023986624,1.0415036358118854
10.2,0.9984787999812096,0.9540024555667531,1.0426392338148047
10.3,1.0000146934899914,0.9559498392946438,1.0437614420070906
10.4,1.00153063670615,0.9579907163784166,1.04487898485989
10.5,1.0030266296296853,0.9600119279935669,1.0459827846446863
10.6,1.0045026722605972,0.9620154135816386,1.0470166287600953
10.7,1.0059587645988857,0.9640000021271629,1.0479893308745394
10.8,1.0073949066445507,0.9657462394791569,1.049019975781769
10.9,1.008811098397592,0.9676145167584007,1.0500104524325677
11,1.01020733985801,0.9694962848855272,1.0510026323489041
11.1,1.0115836310258048,0.9713481882775536,1.0519742301512307
11.2,1.0129399719009764,0.9731673854416951,1.0529312919746596
11.3,1.0142763624835243,0.9750055938932493,1.0538709119535596
11.4,1.0155928027734489,0.9767510082851583,1.0547924144294027
11.5,1.0168892927707498,0.9785939760254839,1.0556928195069515
11.6,1.0181658324754275,0.9803489695260637,1.0565733102143313
11.7,1.0194224218874821,0.9820088370670923,1.0574344829970306
11.8,1.0206590610069128,0.9836703409571983,1.058276337855049
11.9,1.0218757498337205,0.9852351170105496,1.0591478283799354
12,1.0230724883679043,0.9867427556951356,1.06000486934761
12.1,1.024249276609465,0.9883033511898314,1.060808898513599
12.2,1.0254061145584026,0.9898313158945606,1.06156800283194
12.3,1.0265430022147162,0.9913078132190694,1.0623071921780496
12.4,1.0276599395784065,0.9927716794093753,1.0630224312991012
12.5,1.0287569266494736,0.9941966513000664,1.0637210359091869
12.6,1.0298339634279172,0.9955869726253825,1.0644061925698218
12.7,1.0308910499137376,0.9970296547668696,1.0649198191540898
12.8,1.0319281861069345,0.9984649943534692,1.0654132242032097
12.9,1.0329453720075077,0.9998036712954397,1.0659655840193332
13,1.0339426076154576,1.001112203024785,1.0665998829329952
13.1,1.0349198929307843,1.002381853172536,1.0672307774282705
13.2,1.0358772279534874,1.0036349746870905,1.0678325895232894
13.3,1.0368146126835671,1.0048875814544795,1.0684252049373113
13.4,1.0377320471210236,1.0062303297049529,1.0689978927103891
13.5,1.0386295312658564,1.007543151242185,1.0695069302203006
13.6,1.0395070651180658,1.008832756600907,1.0699657625705328
13.7,1.040364648677652,1.010101340310412,1.0704148746342332
13.8,1.0412022819446147,1.0113598492307116,1.0708760300017128
13.9,1.0420199649189539,1.0125916807490134,1.071315745580533
14,1.04281769760067,1.0138152681405095,1.0718695387326869
14.1,1.0435954799897624,1.0149981922055602,1.0722581017772677
14.2,1.0443533120862314,1.0161495650271681,1.0726496608193252
14.3,1.045091193890077,1.0173595739265229,1.073028668875991
14.4,1.0458091254012993,1.0184422718731156,1.0733859869477151
14.5,1.0465071066198979,1.019414549141574,1.073735585958612
14.6,1.0471851375458736,1.0204001424098408,1.0741039596830242
14.7,1.0478432181792257,1.0213769075687291,1.0744073416821691
14.8,1.0484813485199542,1.0223370615723972,1.0746896803922488
14.9,1.0490995285680595,1.0232635021716088,1.0749492330102146
15,1.049697758323541,1.0241894016872615,1.0752152595570719
15.1,1.0502760377863996,1.0250977594556812,1.0754703681124234
15.2,1.0508343669566347,1.025944126611963,1.075705132856339
15.3,1.0513727458342461,1.0267978105693987,1.075939871809172
15.4,1.0518911744192345,1.0276603085171339,1.0761487483880638
15.5,1.052389652711599,1.0284778016859462,1.0763531328355163
15.6,1.0528681807113403,1.0292472338627567,1.0764957475781523
15.7,1.0533267584184585,1.029989591796794,1.0766574910783304
15.8,1.053765385832953,1.0307047046444051,1.0767611472406524
15.9,1.0541840629548238,1.0314580250471388,1.0767837149487
16,1.0545827897840716,1.032197672385008,1.0768184870031872
16.1,1.0549615663206957,1.032938607105791,1.0768503863606442
16.2,1.0553203925646968,1.0337283301133073,1.0769641547181221
16.3,1.0556592685160742,1.0344645100980312,1.076953123008618
16.4,1.0559781941748283,1.035139084839813,1.076938802724114
16.5,1.0562771695409587,1.035858361456882,1.0768607524989626
16.6,1.0565561946144661,1.0365038806325915,1.0768647828260884
16.7,1.05681526939535,1.0371393429330737,1.0768661863882214
16.8,1.0570543938836103,1.0376661062220123,1.0768193069134968
16.9,1.0572735680792475,1.0381741175282395,1.0767042904412296
17,1.0574727919822609,1.0386573382368998,1.0766397287327132
17.1,1.057652065592651,1.0391166980288289,1.0766126614827178
17.2,1.0578113889104181,1.039562574333815,1.0764924952830253
17.3,1.0579507619355613,1.0399508419015375,1.0763570066332135
17.4,1.0580701846680811,1.0403996848762755,1.0761462242872069
17.5,1.0581696571079777,1.040686974178609,1.0759017094073529
17.6,1.0582491792552509,1.0409539695915222,1.0756995637471911
17.7,1.0583087511099007,1.0412754728756282,1.075422914956417
17.8,1.0583483726719272,1.0414797877820066,1.0752465875037793
17.9,1.0583680439413299,1.0417969780056788,1.0750129923141905
18,1.0583677649181094,1.0421353226106613,1.0748096163467276
18.1,1.0583475356022656,1.0423855273779956,1.0746079302657288
18.2,1.058307355993798,1.0427065138373677,1.0743717808200122
18.3,1.0582472260927076,1.042915251398153,1.0741163198547197
18.4,1.0581671458989934,1.042978734597367,1.0739073533629133
18.5,1.0580671154126557,1.0431471755969777,1.07354616499796
18.6,1.0579471346336948,1.0432204958717568,1.0732597214433817
18.7,1.0578072035621107,1.0432732173825892,1.0728447127292549
18.8,1.0576473221979026,1.0433359150969672,1.0725135224278006
18.9,1.0574674905410717,1.0433789267892348,1.072184295852222
19,1.057267708591617,1.0433112350062643,1.0718631227414588
19.1,1.0570479763495388,1.0431722743694247,1.0714770894509447
19.2,1.0568082938148375,1.0432308732229898,1.0709978285573307
19.3,1.0565486609875125,1.0431019959004084,1.0705289124374824
19.4,1.0562690778675643,1.0430519295734273,1.0700096806185595
19.5,1.0559695444549928,1.0429329035106405,1.0695623668085594
19.6,1.0556500607497976,1.042769729948556,1.0690415306413477
19.7,1.0553106267519794,1.0425144422208226,1.0686921447776885
19.8,1.0549512424615375,1.042259356110125,1.0681969440500079
19.9,1.054571907878472,1.0419656447448746,1.067871456535061
20,1.0541726230027835,1.0417075720842197,1.0674095644331911
20.1,1.0537533878344711,1.0413120284652257,1.066798262588538
20.2,1.053314202373536,1.040876235074711,1.066292210243232
20.3,1.0528550666199767,1.0405829993904816,1.0658355126339711
20.4,1.0523759805737947,1.0401762579942622,1.0652668774068719
20.5,1.051876944234989,1.0396550921771017,1.0646971067728712
20.6,1.0513579576035594,1.0391787378407171,1.064090392030183
20.7,1.0508190206795072,1.038708874180393,1.063462319722218
20.8,1.0502601334628312,1.0380874613034587,1.0628270283263406
20.9,1.0496812959535318,1.0374399953063544,1.0621714937892603
21,1.0490825081516089,1.036894743425019,1.0615058014897971
21.1,1.048463770057063,1.0363470477788987,1.0608410221078048
21.2,1.047825081669893,1.03577208654016,1.0603121279313523
21.3,1.0471664429901,1.0351442176372911,1.0597050095415872
21.4,1.0464878540176836,1.0344578338372972,1.0589006304640507
21.5,1.045789314752644,1.0336701954734786,1.0582760609098183
21.6,1.0450708251949805,1.0329550264526177,1.0575841981443548
21.7,1.0443323853446942,1.032171945450993,1.0568621451356415
21.8,1.043573995201784,1.031366564621099,1.0561932790874504
21.9,1.0427956547662505,1.03064899658666,1.0555190591485706
22,1.0419973640380935,1.0298548084663028,1.054832597259538
22.1,1.0411791230173133,1.0289223845388795,1.054091675460418
22.2,1.0403409317039096,1.0279459221302627,1.0533773314922579
22.3,1.0394827900978825,1.0267969949213627,1.0526814339185075
22.4,1.0386046981992318,1.0259246872141987,1.0519431070999303
22.5,1.037706656007958,1.0249842172705503,1.0511914364097816
22.6,1.0367886635240606,1.0239225912567347,1.050462395609628
22.7,1.03585072074754,1.022854745249987,1.049581481544959
22.8,1.0348928276783957,1.0217351614418022,1.0487297825196045
22.9,1.0339149843166282,1.0206787365369454,1.047985225759904
23,1.0329171906622372,1.019536689435915,1.0472118082022888
23.1,1.0318994467152227,1.0184441437932632,1.0463633159512764
23.2,1.0308617524755852,1.0171823115257717,1.04542682870649
23.3,1.0298041079433238,1.0157785889587414,1.0444859771492372
23.4,1.028726513118439,1.0144917065867642,1.0435352191714684
23.5,1.027628968000931,1.01332118925281,1.0426528187613768
23.6,1.0265114725907996,1.012070216573935,1.0417031837572763
23.7,1.0253740268880451,1.010683538158076,1.0407702148030875
23.8,1.0242166308926666,1.0092574310223756,1.0398832620797616
23.9,1.023039284604665,1.0078340690726446,1.0390285411549987
24,1.02184198802404,1.0063804332564412,1.038060397688565
24.1,1.0206247411507914,1.0049139886039091,1.0370799722668576
24.2,1.0193875439849198,1.0033955876612568,1.036071602268039
24.3,1.0181303965264241,1.001818529925134,1.035041918316139
24.4,1.0168532987753054,1.0001978916858352,1.034142401618729
24.5,1.0155562507315634,0.998562170377963,1.0331727949522758
24.6,1.0142392523951977,0.9969215549308608,1.0321959821259705
24.7,1.012902303766209,0.9952877263673439,1.0310923059112942
24.8,1.0115454048445967,0.9936360489388987,1.0299632508527774
24.9,1.0101685556303608,0.9919345548879239,1.0288397023994142
25,1.0087717561235017,0.9902579204262623,1.0277261494617216
25.1,1.007355006324019,0.9885266879229391,1.0266103652419658
25.2,1.005918306231913,0.9867135456203586,1.025407892456919
25.3,1.0044616558471837,0.984920299603963,1.0242303715179877
25.4,1.002985055169831,0.983253516931526,1.023111714151361
25.5,1.0014885041998547,0.9814953959802548,1.0219024074528438
25.6,0.999972002937255,0.9796813060364249,1.0205275970471173
25.7,0.9984355513820321,0.9778424615776239,1.0191524805383159
25.8,0.9968791495341855,0.975994437566565,1.0179423712118854
25.9,0.9953027973937157,0.9741343335482955,1.0167229387313137
26,0.9937064949606225,0.9722535757526973,1.015535119787974
26.1,0.9920902422349057,0.9703326853037333,1.0140893034808176
26.2,0.9904540392165656,0.9683807742844064,1.0127541611101436
26.3,0.9887978859056022,0.9664880300159067,1.011449366774851
26.4,0.9871217823020153,0.9644685054677242,1.0100614352100548
26.5,0.9854257284058049,0.9624043572831343,1.008650950694895
26.6,0.9837097242169712,0.960373474964666,1.0071742990562176
26.7,0.981973769735514,0.9583103822145382,1.0056410409607641
26.8,0.9802178649614337,0.9561352586504213,1.004162391258841
26.9,0.9784420098947296,0.9539365127344244,1.0027696050478938
27,0.9766462045354022,0.9516907260341478,1.001331113110644
27.1,0.9748304488834516,0.9494244879052126,0.9998518062314984
27.2,0.9729947429388772,0.9471784778673425,0.9983806122989425
27.3,0.9711390867016798,0.9450200320581303,0.996912659036981
27.4,0.9692634801718588,0.9428750247683269,0.995494048094577
27.5,0.9673679233494143,0.9405796172020835,0.9940892224581356
27.6,0.9654524162343463,0.9381691067947318,0.9924140957080104
27.7,0.9635169588266553,0.9357876550126939,0.9907691942434333
27.8,0.9615615511263408,0.9334887091864752,0.9890798264991362
27.9,0.9595861931334027,0.9312742938228029,0.9873602594566057
28,0.9575908848478412,0.9290251209913793,0.9855992402102185
28.1,0.9555756262696562,0.9266918851088359,0.9839166532325732
28.2,0.953540417398848,0.9244108558874078,0.9821653373207284
28.3,0.9514852582354165,0.9221133227737557,0.9803576024624328
28.4,0.9494101487793613,0.9197891479207216,0.9786142978194774
28.5,0.9473150890306827,0.9174015426350226,0.9768583836934073
28.6,0.9452000789893809,0.9148131054556119,0.9750825363781814
28.7,0.9430651186554555,0.9121842010779668,0.9732965404003429
28.8,0.9409102080289068,0.9094978041159754,0.9716362561268561
28.9,0.9387353471097347,0.9068094685085539,0.9699430492579026
29,0.9365405358979391,0.9042375169053641,0.968250365436996
29.1,0.93432577439352,0.9016504036759208,0.966549018875066
29.2,0.9320910625964778,0.8990512007610487,0.9647993314138135
29.3,0.929836400506812,0.8964319491094652,0.9628934853360457
29.4,0.9275617881245227,0.8937872558516846,0.9610209810126575
29.5,0.9252672254496102,0.8910468966690795,0.9591949657539931
29.6,0.9229527124820741,0.8882940049600089,0.957357944425299
29.7,0.9206182492219146,0.8855495803951552,0.955399688842951
29.8,0.918263835669132,0.8827930527524298,0.9534268329575826
29.9,0.9158894718237256,0.8800829586061782,0.9513781219063615
30,0.913495157685696,0.8773570266657174,0.9493597550666473
30.1,0.9110808932550429,0.8745703895266727,0.9473197152030083
30.2,0.9086466785317664,0.871749804807419,0.9452981409831231
30.3,0.9061925135158668,0.868840360045605,0.9432510112093158
30.4,0.9037183982073433,0.86587744546928,0.9412632949394724
30.5,0.9012243326061966,0.8629429643854496,0.9392714957688993
30.6,0.8987103167124265,0.8600161101021573,0.9372583309263276
30.7,0.896176350526033,0.8571036483959648,0.9351548436289163
30.8,0.8936224340470161,0.8541905647191854,0.9329537751911449
30.9,0.8910485672753758,0.8511892151292606,0.9307578789678784
31,0.888454750211112,0.8480886664850661,0.9285548642779304
31.1,0.8858409828542249,0.8449656076774854,0.9263283958644073
31.2,0.8832072652047143,0.8418762590418369,0.9240615463981718
31.3,0.8805535972625804,0.8387985872337024,0.9217173601064268
31.4,0.877879979027823,0.8356926343483484,0.9193660921958886
31.5,0.8751864105004421,0.8325417947781579,0.9170856026732636
31.6,0.872472891680438,0.8293166365582161,0.9147211167798992
31.7,0.8697394225678103,0.8260912296003474,0.9124376658959821
31.8,0.8669860031625595,0.822837240436469,0.9100223679624216
31.9,0.8642126334646849,0.819585537635166,0.9077514318099299
32,0.8614193134741871,0.8163594835346433,0.9054268548195717
32.1,0.8586060431910658,0.8131315475817122,0.9029576763239637
32.2,0.8557728226153212,0.8098623801915711,0.9005411606050303
32.3,0.8529196517469533,0.8066000301138859,0.8981698729506857
32.4,0.8500465305859617,0.8033289898281935,0.8956889185090084
32.5,0.8471534591323466,0.7999737581405335,0.8932237974073605
32.6,0.8442404373861083,0.7965745600263259,0.8908016175136206
