temp,mean,conf_lower,conf_upper
0,6.477918916962595,5.101523170049364,6.609664946161983
0.1,6.495911336710081,5.103920417834713,6.629830412546231
0.2,6.514268715661767,5.106394883210458,6.6509047399954575
0.3,6.532998171019601,5.108949007361713,6.672889223190262
0.4,6.552106949508455,5.111585306716791,6.695034140491839
0.5,6.571602429420194,5.114306375183724,6.71802391379903
0.6,6.591492122678684,5.117114886449604,6.741190114188142
0.7,6.611783676925479,5.120013596344395,6.764661475544757
0.8,6.632484877625888,5.123005345270827,6.788321790225603
0.9,6.653603650195125,5.126093060702061,6.813083336065978
1,6.675148062144179,5.129279759748763,6.838322059238184
1.1,6.6971263252450575,5.132568551797409,6.8643080163937436
1.2,6.719546797714966,5.135962641221539,6.890856342002201
1.3,6.742417986418998,5.13946533016776,6.91796249313357
1.4,6.7657485490908655,5.143080021418339,6.9453772809310275
1.5,6.789547296571141,5.146810221332277,6.973341803493537
1.6,6.813823195062467,5.150659542866741,7.001903096559579
1.7,6.838585368401147,5.154631708680781,7.0313101203067
1.8,6.863843100344466,5.158730554323378,7.061432930502911
1.9,6.889605836873092,5.162960031507718,7.09220314893041
2,6.915883188507794,5.167324211473829,7.123634095460772
2.1,6.9426849326397555,5.171827288441556,7.155464214327089
2.2,6.970021015873614,5.176530484677563,7.187854396032129
2.3,6.99790155638239,5.1813972897010645,7.22091957792277
2.4,7.026336846273369,5.186421175296818,7.25461154878555
2.5,7.055337353963945,5.191607101633999,7.28899278256536
2.6,7.084913726566399,5.1969601807219705,7.323903097441108
2.7,7.1150767922805125,5.202485680844968,7.359969940677175
2.8,7.145837562792833,5.2082334029401025,7.3967994147538905
2.9,7.177207235681396,5.214173009103624,7.434406876401952
3,7.209197196824578,5.2203053373838495,7.472822236081349
3.1,7.254790969667996,5.227607068749222,7.5253842122536225
3.2,7.301299276700392,5.2351470755675775,7.579200672881339
3.3,7.34873961849508,5.242932969590033,7.634364659667566
3.4,7.397129802831006,5.250972598423626,7.690834808505235
3.5,7.4464879491328295,5.2592740525071084,7.748283605763096
3.6,7.496832492939458,5.267845672277525,7.807404412529679
3.7,7.548182190399564,5.276696055531879,7.867913750844374
3.8,7.600556122792576,5.285834064988608,7.929556255054908
3.9,7.653973701073475,5.2952688360532365,7.992653515448054
4,7.708454670439682,5.305009784792985,8.056969320243224
4.1,7.76401911491818,5.315066616124916,8.122353007139187
4.2,7.820687461970908,5.325449332222516,8.189532059282598
4.3,7.878480487116383,5.336168241145308,8.25819515229812
4.4,7.9374193185653255,5.3472339656965096,8.32807168816312
4.5,7.997525441867997,5.358657452513598,8.399474188672404
4.6,8.058820704570811,5.370449981396625,8.4723923999289
4.7,8.1213273208796,5.382623174879427,8.546903165831734
4.8,8.185067876326881,5.395189008048546,8.622963802357539
4.9,8.250065332440196,5.408159818615075,8.700770544599644
5,8.316343031408543,5.421548317244433,8.779962880489306
5.1,8.383924700743732,5.43533930177619,8.861136529915496
5.2,8.452834457933294,5.449550802886251,8.943484549578486
5.3,8.523096815081475,5.4646550064503705,9.027767619914352
5.4,8.5947366835346,5.480554970833769,9.11397143649626
5.5,8.667779378486966,5.496987569942621,9.202019209699486
5.6,8.742250623563185,5.513970127838263,9.292285999646191
5.7,8.818176555372736,5.531520508050064,9.385019354770778
5.8,8.895583728032257,5.549657129231056,9.479985716162744
5.9,8.974499117650893,5.568398981211467,9.576930053777495
6,9.054950126773832,5.5877656414564045,9.675802692217584
6.1,9.136964588778875,5.607777291935517,9.776136937636883
6.2,9.220570772220674,5.628454736410739,9.878572528593024
6.3,9.30579738511706,5.6498194181495505,9.983508547921103
6.4,9.392673579171529,5.671893438070453,10.090072046377486
6.5,9.481228953925806,5.693924364863181,10.19847613596004
6.6,9.571493560836055,5.715745886759695,10.308830188721453
6.7,9.663497907266008,5.738236584456956,10.421474329928879
6.8,9.75727296039004,5.761416260371915,10.536988904544993
6.9,9.852850150998885,5.7853052718492455,10.65618662837016
7,9.950261377200345,5.8099245453196575,10.778037019680129
7.1,10.04953900800702,5.835295590753707,10.902494752581323
7.2,10.15071588680281,5.8614405164134675,11.028874757926536
7.3,10.253825334679457,5.888382043905029,11.158044511160334
7.4,10.358901153634115,5.916143523533706,11.289304967395633
7.5,10.46597762961858,5.944748949964507,11.423456803457348
7.6,10.575089535430273,5.97512883923028,11.561080436103156
7.7,10.68627213343482,6.00736041202546,11.7005406739311
7.8,10.799561178109572,6.040628670447112,11.8413289257773
7.9,10.914992918396894,6.074965665166867,11.985380442612515
8,11.032604099855787,6.110404377884657,12.134111569783311
8.1,11.152431966599668,6.146978745491324,12.284293606092051
8.2,11.274514263007921,6.184723684709868,12.438449344945042
8.3,11.398889235198096,6.223675117217389,12.596618551887198
8.4,11.525595632245212,6.263869995248303,12.75733940449535
8.5,11.65467270713408,6.30534632767688,12.922018808868776
8.6,11.786160217429943,6.348143206580685,13.089358407172961
8.7,11.920098425652172,6.39230083428054,13.25965460062892
8.8,12.056528099335164,6.437860550855938,13.432714335997339
8.9,12.195490510759926,6.484864862132315,13.610401954160206
9,12.337027436339207,6.533357468134164,13.791509549781695
9.1,12.48118115563832,6.583383292000771,13.976617848883235
9.2,12.627994450013196,6.634988509355061,14.165398136126809
9.3,12.777510600846341,6.688220578119971,14.357882736267598
9.4,12.929773387360745,6.743128268771842,14.553596196917043
9.5,13.084827083991016,6.799761695020119,14.752902944517823
9.6,13.242716457290065,6.858172344902757,14.956105997250361
9.7,13.403486762349038,6.918413112281101,15.163745578840867
9.8,13.56718373870719,6.9805383287215585,15.375604421387044
9.9,13.733853605727559,7.044603795745243,15.591588692008944
10,13.903543057413392,7.110666817426974,15.811835395642097
10.1,14.07629925663931,7.178786233323662,16.035982224841327
10.2,14.252169828770157,7.249136254749639,16.2642258903946
10.3,14.431202854639638,7.321696969421152,16.496840981849022
10.4,14.613446862859506,7.3965097977730405,16.7337760388458
10.5,14.798950821429326,7.473640531511709,16.975201198730833
10.6,14.98776412861537,7.553156686826822,17.220841493594232
10.7,15.179936603066318,7.63512753950681,17.471997397520077
10.8,15.375518473132027,7.719712903843119,17.727926854994283
10.9,15.574560365350512,7.8066768367258135,17.98870645365965
11,15.777113292066934,7.889769810342735,18.25444199643611
11.1,15.983228638147077,7.979095422507075,18.526085908530618
11.2,16.19295814674641,8.068497345342823,18.80280075341961
11.3,16.406353904094438,8.158872190593979,19.08470137739197
11.4,16.623468323252478,8.251787597441105,19.371880290359808
11.5,16.844354126801626,8.347309701576732,19.664418720843706
11.6,17.069064328415937,8.44696780276257,19.963071674851278
11.7,17.297652213274304,8.552390490498322,20.26739261590498
11.8,17.530171317262973,8.661617409787628,20.577351598324437
11.9,17.766675404918423,8.774048423582823,20.89298819928747
12,18.007218446059262,8.88977029758148,21.214390138112375
12.1,18.251854591053196,9.00887179293176,21.541043115814585
12.2,18.500638144663707,9.131443693329906,21.873591409745803
12.3,18.753623538418946,9.25757883131214,22.21211437955714
12.4,19.0108653014431,9.387372113638158,22.556739416719225
12.5,19.27241802968881,9.52092054566336,22.90756340464663
12.6,19.538336353506438,9.658323254584007,23.264671566076046
12.7,19.808674903484274,9.799814499125285,23.6281491989755
12.8,20.083488274491142,9.952582653462084,23.998081616765425
12.9,20.362830987850305,10.109941219561641,24.374554085167254
13,20.646757451571588,10.272014792372731,24.75765175553792
13.1,20.935321918565368,10.438930655807097,25.147459594542394
13.2,21.22857844275994,10.610818800943008,25.544062310011135
13.3,21.526580833040924,10.7886879023997,25.947544272824004
13.4,21.829382604928096,10.972451242728177,26.357989434655284
13.5,22.13703692990286,11.15676422063755,26.77548124140958
13.6,22.449596582295648,11.33168014009843,27.20090213979254
13.7,22.767113883640164,11.511300532392811,27.633814278846828
13.8,23.08964064439769,11.695738258794405,28.074058172554096
13.9,23.4172281029513,11.884797105224433,28.521715171710053
14,23.749926861766834,12.057987131945486,28.97686562788646
14.1,24.08778682061322,12.235229649997992,29.43958877676955
14.2,24.430857106731526,12.416606748225924,29.909962615773978
14.3,24.779186001838312,12.602201599727705,30.388063775702836
14.4,25.132820865844426,12.792098445609856,30.873967386214314
14.5,25.49180805716702,12.984837480553482,31.367746934848928
14.6,25.856192849507632,13.180165522088997,31.868631239988943
14.7,26.22601934496548,13.37983665887503,32.37625578908227
14.8,26.60133038335011,13.583929122179018,32.89184974848919
14.9,26.982167447553252,13.792521700614815,33.415331105669964
15,27.368570564834773,14.005693695210992,33.947449386434755
15.1,27.760578203872733,14.230411399219824,34.48716895075524
15.2,28.15822716742238,14.483165174592605,35.03463645939307
15.3,28.561552480423885,14.742195141874674,35.5903202698366
15.4,28.970587273392688,15.007627050758723,36.15426489073936
15.5,29.38536266092143,15.279587621607865,36.726511128773026
15.6,29.80590761511577,15.560016176242746,37.30709584990551
15.7,30.23224883378118,15.84914487291519,37.89605173022064
15.8,30.664410603171287,16.145420719351744,38.493406995878836
15.9,31.10241465510162,16.448983957369023,39.0991851518033
16,31.54628001822694,16.759975668278855,39.71340469866241
16.1,31.996022863272238,17.078537651437045,40.336078837702296
16.2,32.45165634200195,17.404812292936185,40.967215162969076
16.3,32.91319041970314,17.738942423895498,41.60681534044246
16.4,33.38063170095221,18.1259380035827,42.254874773586565
16.5,33.85398324842625,18.51543456839929,42.911382254805154
16.6,34.333244394512235,18.943028631558704,43.576319602271184
16.7,34.81841054545929,19.309726509898407,44.24966128158115
16.8,35.30947297781061,19.62578419736035,44.93137401166543
16.9,35.8064186268425,20.079677386110777,45.62141635436563
17,36.309229866729844,20.546994931899647,46.31973828706916
17.1,36.81788428214666,20.99846967889482,47.02628075776982
17.2,37.332354431002166,21.494822095603457,47.74097522190014
17.3,37.85260759800153,22.004556834687467,48.460300545708144
17.4,38.37860553871124,22.5279176179311,49.19178367092413
17.5,38.910304213797474,23.047692715656524,49.930977506386675
17.6,39.4476535130958,23.381609846906542,50.677990959081505
17.7,39.990596969158624,23.72135780745776,51.43270247116703
17.8,40.539071459915306,24.07202432941861,52.19497785604118
17.9,41.09300690006777,24.519457291927818,52.964669688497864
18,41.652325920832205,24.97882987307437,53.74175097824905
18.1,42.21694353762451,25.499214340451015,54.52628053756457
18.2,42.786766805273466,25.997324732897457,55.31772970404289
18.3,43.36169446033335,26.439736107327118,56.11589298373785
18.4,43.94161655005109,26.913206369049284,56.920548274127356
18.5,44.526414047532,27.4103010595468,57.731456096531446
18.6,45.11595845262936,27.91081459128471,58.54835879839968
18.7,45.71011137807074,28.449837495208413,59.37073779077448
18.8,46.308724120315986,28.961411461791457,60.1971514108427
18.9,46.911637214626495,29.398798521184403,61.03410914337608
19,47.51867997380753,29.90712244013332,61.88338251991927
19.1,48.129670010068466,30.31539949812606,62.73778713958826
19.2,48.744412739427084,30.743560616639673,63.59697242925532
19.3,49.36270086806646,31.18825166026621,64.46056458243531
19.4,49.98431386003169,31.625507410890222,65.32757225330208
19.5,50.609017385636506,32.06563933618268,66.19799081150703
19.6,51.236562749926726,32.509076355450695,67.06384293532659
19.7,51.866686300528436,32.950597946084315,67.92490044399442
19.8,52.49910881418502,33.39922542564956,68.78952403249278
19.9,53.133534861266135,33.85360281108086,69.66492758668947
20,53.7696521475085,34.294436424147484,70.54107984149329
20.1,54.4071308322222,34.738987201878494,71.41480881649879
20.2,55.04562282217499,35.18809417371335,72.2742480019342
20.3,55.68476104033828,35.64686263602248,73.11934348135378
20.4,56.32415866865394,36.11930952565795,73.97074686509664
20.5,56.963408363953825,36.58143201297991,74.8346650426113
20.6,57.602081446135124,37.04784341439325,75.70781430435379
20.7,58.23972705766604,37.51872966663646,76.56531239819243
20.8,58.875871293467675,38.008173007963414,77.41222743121129
20.9,59.510016300184624,38.50249358085803,78.24988842191786
21,60.14163934382754,39.004074145718256,79.09339990407625
21.1,60.77019184473759,39.54098745477924,79.93434108541157
21.2,61.395098378787715,40.11038034859564,80.76798711664642
21.3,62.0157556437026,40.70101991138619,81.61447096184784
21.4,62.6315313893418,41.2963469473339,82.44498150462545
21.5,63.241763310754955,41.809404246428215,83.24515458505513
21.6,63.845757902777606,42.304069700682255,84.05102759095118
21.7,64.44278927489982,42.856500907920186,84.82049546808446
21.8,65.03209792509615,43.4504922358859,85.59982587346381
21.9,65.61288947126515,44.04674422891656,86.40543841277959
22,66.18433333888355,44.55886728580741,87.1611590051515
22.1,66.7455614034349,45.0889378458962,87.91881751358126
22.2,67.29566658612583,45.765159883273796,88.62825543378251
22.3,67.83370140135911,46.357046445235234,89.41798543398559
22.4,68.35867645437783,46.93667739577416,90.17804041997759
22.5,68.86955888745145,47.46648701464683,91.00972140379693
22.6,69.36527077291606,47.81653266817564,91.90729559167416
22.7,69.84468745133235,48.054404125844776,92.73811734027915
22.8,70.30663581296653,48.33624063337465,93.59449409720649
22.9,70.74989252074427,48.76523806298044,94.31157241435385
23,71.17318217276724,49.08614968314886,95.17320167279735
23.1,71.57517540242146,49.40896295872455,96.02668531449805
23.2,71.95448691404704,49.86470947233895,96.83829584238659
23.3,72.30967345206753,50.256546627767335,97.60142036185992
23.4,72.63923170141936,50.47911667686236,98.26948083189771
23.5,72.94159611704595,50.60770361921393,98.89956058907569
23.6,73.21513668015275,50.87955869820379,99.55443192155003
23.7,73.45815657884944,50.93086113585094,100.0706134970655
23.8,73.66888981072474,50.955075460794234,100.54232146880891
23.9,73.84549870482513,50.94332792566528,101.02904806124208
24,73.9860713604304,50.893503205746434,101.25635866435398
24.1,74.08861899993039,50.83946708164564,101.4751416682929
24.2,74.1510732330295,50.78521348231658,101.59348796562357
24.3,74.17128322941178,50.681161514177354,101.59503591997007
24.4,74.14701279691272,50.50314993361575,101.47098318772932
24.5,74.07593736214885,50.172976556887924,101.21129531739803
24.6,73.95564085046108,49.852932517351526,100.76750770849117
24.7,73.7836124619273,49.269282216469726,100.1823131784428
24.8,73.55724334009754,48.60858793291768,99.61476540909348
24.9,73.27382313000287,48.134764797013496,98.49654216105274
25,72.93053642187404,47.5708603244309,97.78746149724849
25.1,72.52445907690124,46.18288954536971,98.02543595129607
25.2,72.05255443124422,43.93160216098895,98.62286869273983
25.3,71.5116693743873,40.98749956115559,99.1812687566713
25.4,70.89853029780957,37.901999870663836,99.74986943156506
25.5,70.2097389098124,34.279659948705046,100.5049688946438
25.6,69.44176791221746,28.548317072623405,101.10749052362249
25.7,68.59095653451618,23.570577556985413,101.63360133132413
25.8,67.65350592090549,17.30461615694435,102.27974978485643
25.9,66.62547436550967,10.292654201900831,102.88151028126045
26,65.50277239093468,3.7918875954809343,103.25219378850726
26.1,64.2811576651553,-3.348410150763499,103.69444850404719
26.2,62.956229751568486,-12.17605642935564,104.0917073205751
26.3,61.523424686899254,-21.927933727922323,104.43296851476332
26.4,59.97800938146276,-32.524370789819635,104.75788180887267
26.5,58.31507583612632,-43.035198456241254,105.08233508500489
26.6,56.529535170135745,-54.367520089827394,105.35936430920324
26.7,54.6161114537789,-66.64636268527988,105.58582465610964
26.8,52.56933533968373,-80.44825128042064,105.75665780413179
26.9,50.38353748634898,-95.52093425649237,105.88263834290443
27,48.052841767298965,-112.93224398587796,105.96465519246976
27.1,45.57115825905814,-133.07542238282687,105.98304818069708
27.2,42.93217600092319,-155.00250802178942,105.93769049537609
27.3,40.12935551929155,-178.8761396868932,105.82528262359774
27.4,37.155921109075216,-204.91554008544028,105.64120917250382
27.5,34.004852864509495,-234.93636320506616,105.3827449494113
27.6,30.668878451406602,-268.9118067946526,105.03113364785665
27.7,27.140464612672986,-306.1487218190437,104.58302893925566
27.8,23.411808398645217,-346.9112861453997,104.05217129465338
27.9,19.474828113535846,-391.5156435389336,103.44991389021337
28,15.321153969022665,-440.34461622354974,102.75302311959892
28.1,10.94211843570855,-493.7384681883012,101.9518845799373
28.2,6.3287462829227366,-552.1035663701654,101.00156767006534
28.3,1.4717442970104269,-615.8739524498023,99.71974283261159
28.4,-3.6385093320293436,-685.5252615268371,98.28703804297389
28.5,-9.011975966027402,-761.6320787885395,96.7245862927475
28.6,-14.65896782703201,-844.7384711786885,95.20787400935048
28.7,-20.590159669733072,-935.4687469735252,93.64926033759859
28.8,-26.816600829380928,-1034.5025917986052,91.94176265565086
28.9,-33.34972765704587,-1142.5799763944462,90.08376432793969
29,-40.201376354380194,-1260.5015928519294,88.1010667926725
29.1,-47.38379622049373,-1389.088181470472,85.97228391370831
29.2,-54.909663323869644,-1529.3000932350224,83.68328043794239
29.3,-62.79209461270877,-1682.1990892123933,81.2694915368778
29.4,-71.04466247747392,-1848.9497360625526,78.66831469808595
29.5,-79.68140977983138,-2030.9380071873104,75.84588735284078
29.6,-88.71686536265497,-2229.3367577999843,72.86899148360052
29.7,-98.16606005617928,-2445.509355481112,69.6479609368666
29.8,-108.04454319587101,-2681.077355322284,66.26970688588759
29.9,-118.36839966808304,-2937.8481501651436,62.76127132152322
30,-129.15426750001788,-3217.7955118853256,58.964330653575615
30.1,-140.41935601107963,-3522.844892823244,54.976385695287554
30.2,-152.18146454319887,-3854.971899529669,50.69077161214392
30.3,-164.45900178825158,-4217.067401032942,46.35797141583938
30.4,-177.27100573128646,-4611.63255112295,41.75130834748712
30.5,-190.63716422881055,-5041.622305157332,37.06643570232942
30.6,-204.57783624201227,-5510.431666695083,32.28616854807717
30.7,-219.11407374541855,-6021.3384947525765,27.13909521367346
30.8,-234.26764433207003,-6577.7461006921185,21.799841603702685
30.9,-250.06105453700096,-7183.493047798719,15.93134763064061
31,-266.51757390147407,-7843.493339904519,10.093403444714662
31.1,-283.6612598010791,-8562.348390940339,3.971778293549145
31.2,-301.51698306155316,-9345.080546770161,-2.5095329457594744
31.3,-320.11045438692736,-10197.677483621317,-9.372565284699439
31.4,-339.4682516253046,-11126.535029979543,-16.719550719305364
31.5,-359.61784789841926,-12138.235943771158,-24.445672998317377
31.6,-380.58764062189783,-13239.635845740922,-32.43502051554898
31.7,-402.4069814440049,-14439.44218794351,-41.02447972468425
31.8,-425.10620713143925,-15745.955116203022,-50.035841435364354
31.9,-448.71667143175665,-17168.649396925226,-59.360652392980455
32,-473.270777942747,-18717.824458065996,-69.55863009215938
32.1,-498.802014020164,-20404.620225112307,-80.13917236709335
32.2,-525.3449857561139,-22241.229691206994,-91.29760791147346
32.3,-552.9354540613962,-24241.0343535415,-103.07851613796653
32.4,-581.6103718861117,-26418.721523519755,-115.51171361154314
32.5,-611.4079226139949,-28789.986606823626,-128.62984721543907
32.6,-642.3675596668562,-31371.78294692699,-142.54280089390718
32.7,-674.5300473568274,-34182.91629559094,-157.1785314832988
32.8,-707.9375030250776,-37243.36211482101,-172.23267309682367
32.9,-742.6334405070676,-40575.45386624975,-188.85602229520865
33,-778.662814965387,-44203.31452976062,-205.1435175696679
33.1,-816.0720691327157,-48154.49469563969,-220.0343432752127
33.2,-854.9091810086707,-52457.837431862834,-234.7191499197451
