temp,mean,conf_lower,conf_upper
0,-0.004896590490332172,-0.005518657246685738,-0.0042755529416493914
0.1,-0.004947185555554236,-0.005579220218555974,-0.00431633272974713
0.2,-0.004995377619071141,-0.005637208692042394,-0.004354874343137215
0.3,-0.005041175102669042,-0.005692642898767906,-0.004390843639690452
0.4,-0.005084586449154227,-0.005745531805038512,-0.004424239267334033
0.5,-0.005125620122487073,-0.005795884399707373,-0.0044553949201335714
0.6,-0.005164284607917315,-0.005843709694319872,-0.00448431868156299
0.7,-0.005200588412120626,-0.005889016723260075,-0.0045110435059740285
0.8,-0.005234540063336505,-0.005931814543898651,-0.004535886061077495
0.9,-0.005266148111507542,-0.005972112236742228,-0.004558533622398819
1,-0.005295421128420016,-0.006009918905584229,-0.004578994299701065
1.1,-0.005322367707845888,-0.006045243677657186,-0.0045972762235623995
1.2,-0.005346996465686189,-0.0060780957037865875,-0.004613387545511565
1.3,-0.0053693160401158116,-0.00610848415854623,-0.004627336438164679
1.4,-0.005389335091729764,-0.00613641824041514,-0.0046391310953633885
1.5,-0.005407062303690834,-0.006161907171936043,-0.004648779732314386
1.6,-0.005422506381878768,-0.006184960199875458,-0.004656290585730319
1.7,-0.00543567605504091,-0.00620558659538537,-0.004661671913972091
1.8,-0.005446580074944366,-0.006223795654166547,-0.004664931997192596
1.9,-0.005455227216529686,-0.006239596696633522,-0.004666079137481887
2,-0.005461626278066114,-0.006252999068081239,-0.004665121659013805
2.1,-0.005465786081308392,-0.0062640121388534056,-0.004662067908194083
2.2,-0.005467715471655165,-0.00627264530451256,-0.004656926253809963
2.3,-0.0054674233183089945,-0.006278907986011895,-0.004649705087181301
2.4,-0.005464918514438011,-0.006282809629868839,-0.004640412822313249
2.5,-0.005460209977339214,-0.006284359708340434,-0.0046290578960504584
2.6,-0.005453306648603466,-0.006283567719600534,-0.004615648768232896
2.7,-0.005444217494282169,-0.006280443187918842,-0.004600193921853231
2.8,-0.005432951505055683,-0.006274995663841814,-0.004582701863215867
2.9,-0.005419517696403473,-0.006267234724375447,-0.004563181122097608
3,-0.005403925108776051,-0.006257169973170005,-0.004541640251909991
3.1,-0.005386182807768693,-0.006244811040706674,-0.004518087829863308
3.2,-0.005366299884296985,-0.00623016758448619,-0.004492532457132352
3.3,-0.00534428545477422,-0.006213249289219474,-0.004464982759023876
3.4,-0.005320148661290647,-0.006194065867020283,-0.00443544738514583
3.5,-0.005293898671794641,-0.0061726270575999205,-0.0044039350095783775
3.6,-0.005265544680275779,-0.006148942628464044,-0.0043703783985665065
3.7,-0.005235095906949871,-0.006123022375111557,-0.004333868872654878
3.8,-0.005202561598445963,-0.00609487612123567,-0.004295385616147366
3.9,-0.0051679510279953565,-0.006064513718927124,-0.004254937523882933
4,-0.005131273495622649,-0.00603194504887961,-0.004212533516430882
4.1,-0.005092538328338839,-0.005997180020597444,-0.004168182540275937
4.2,-0.005051754880336525,-0.00596022857260549,-0.004121893568005326
4.3,-0.005008932533187217,-0.005921100672661385,-0.00407367559849788
4.4,-0.004964080696040812,-0.005879806317970116,-0.0040235376571152014
4.5,-0.00491720880582723,-0.005836355535400926,-0.003971488795894896
4.6,-0.00503545601092012,-0.005975542081887371,-0.00406719561925352
4.7,-0.005148939946510304,-0.006109645832515959,-0.004158420167444854
4.8,-0.0052576777304248505,-0.006238684981315489,-0.004245178752504783
4.9,-0.005361686525206767,-0.006362677770053236,-0.004327487729174518
5,-0.005460983538417363,-0.006481642488560067,-0.004405363495189064
5.1,-0.005555586022941766,-0.0065955974750589764,-0.004478822491568685
5.2,-0.0056455112772976004,-0.006704561116497079,-0.004547881202913382
5.3,-0.005730776645946898,-0.0068085518488810726,-0.004612556157700445
5.4,-0.005811399519611282,-0.006907703312979473,-0.004672937308416447
5.5,-0.005887397335590448,-0.007003193519333341,-0.004728976355443698
5.6,-0.005958787578084011,-0.007093669272548444,-0.004780682823008756
5.7,-0.00602558777851678,-0.007177927553094544,-0.004828073408534513
5.8,-0.006087815515867447,-0.007257304372505148,-0.004872687359700801
5.9,-0.006145488417000812,-0.007331818453726325,-0.004913738158718622
6,-0.006198624157003549,-0.0074014885711021754,-0.004950558323675637
6.1,-0.006247240459523568,-0.0074663335507387475,-0.004983164487611012
6.2,-0.0062913550971130505,-0.007526600822044262,-0.0050116973213888034
6.3,-0.006330985891575168,-0.007582988773290909,-0.005036221144409686
6.4,-0.006366150714314584,-0.0076346240483634465,-0.005056643573435904
6.5,-0.00639686748669175,-0.007681525520411793,-0.005072965011944753
6.6,-0.006423154180381081,-0.007723712115485215,-0.005085169579159152
6.7,-0.0064450288177330586,-0.007761202812913251,-0.005093274064287963
6.8,-0.006462509472140301,-0.007794016645690847,-0.005097295303766883
6.9,-0.006475614268407704,-0.007822372206349397,-0.005097266699562758
7,-0.006484361383126641,-0.007845907177247171,-0.005091309377423232
7.1,-0.006488769045053355,-0.007864827725818892,-0.00508321365171269
7.2,-0.006488855535491556,-0.0078792741907499,-0.005071124638757344
7.3,-0.006484639188679307,-0.007888987219545103,-0.005055019106758679
7.4,-0.006476138392180264,-0.007894138506731412,-0.005035060890226206
7.5,-0.006463371587279306,-0.007894747602915211,-0.0050107807863763575
7.6,-0.006446357269382665,-0.007890903003772692,-0.004982528517513242
7.7,-0.006425113988422593,-0.007882200756395591,-0.0049503373423865306
7.8,-0.0063996603492666405,-0.007869854624193493,-0.004914224686597167
7.9,-0.0063700150121316235,-0.00785306712897911,-0.004874208027311989
8,-0.006336196693002337,-0.007831857806854038,-0.0048290460039061575
8.1,-0.0062982241640551,-0.00780594889803784,-0.00477965363604045
8.2,-0.006256116254086203,-0.007775599974655231,-0.004726399718897062
8.3,-0.006209891848945322,-0.007740871175004888,-0.00466929331649129
8.4,-0.006159569891974006,-0.007701782412502648,-0.004608352301952011
8.5,-0.006105169384449257,-0.007658353661361644,-0.0045434548522770325
8.6,-0.006046709386032355,-0.0076106049570636575,-0.004474753659560382
8.7,-0.005984209015222963,-0.007558529782979238,-0.004402270409235508
8.8,-0.005917687449818584,-0.007502094706848723,-0.004326056929104387
8.9,-0.005847163927379521,-0.007441398644662237,-0.004246354885059749
9,-0.005772657745699325,-0.007376461883400392,-0.004162937134689411
9.1,-0.005694188263280917,-0.007307290298765048,-0.004075821868707811
9.2,-0.005611774899818412,-0.007233906482545688,-0.0039850273350518885
9.3,-0.0055254371366847445,-0.007156342210082725,-0.0038902298322508115
9.4,-0.0054351945174252285,-0.007074618034251999,-0.0037914384875120666
9.5,-0.005341066648257074,-0.006988754573709682,-0.003687845234601029
9.6,-0.005243073198575033,-0.0068987725134232215,-0.0035796775512913137
9.7,-0.005141233901463224,-0.006804692605208761,-0.0034679071281266093
9.8,-0.005035568554213235,-0.006706535668275205,-0.0033528616277955746
9.9,-0.00492609701884867,-0.006604322589774995,-0.0032342393632342984
10,-0.004812839222656126,-0.006498074325361711,-0.003112059524437081
10.1,-0.004695815158722843,-0.006387811899754635,-0.002986341365426925
10.2,-0.004575044886481022,-0.006273556407310371,-0.0028571042047893184
10.3,-0.004450548532258989,-0.006155329012601628,-0.0027243674262127713
10.4,-0.00432234628983932,-0.006033150951003337,-0.0025881504790362074
10.5,-0.004190458421023958,-0.005907043529286118,-0.0024484728788032976
10.6,-0.004054905256206576,-0.005777028126217378,-0.002305354207823917
10.7,-0.003915707194952179,-0.005643126193170003,-0.002158814115742772
10.8,-0.003772884706584154,-0.005505359254738878,-0.0020088983136819735
10.9,-0.0036264583307788452,-0.00536374890936536,-0.001855718835065617
11,-0.003476448678167803,-0.005218316829969766,-0.0017000542831556234
11.1,-0.003322876430947829,-0.0050690065262185445,-0.0015434723182378369
11.2,-0.003165762343498967,-0.004913158580491022,-0.001383590826232383
11.3,-0.003005127243010542,-0.004751924647229521,-0.0012204293798600153
11.4,-0.0028409920301154436,-0.00458692346662527,-0.001054007620477786
11.5,-0.0026733776795327094,-0.004419782313841781,-8.843452586741012e-4
11.6,-0.002502305240718652,-0.004254198080464643,-7.115546627494002e-4
11.7,-0.0023277958385266168,-0.004084964370256489,-5.356724520986606e-4
11.8,-0.002149870673875503,-0.003912103222058448,-3.566102344199143e-4
11.9,-0.0019685510244273024,-0.0037356367539379555,-1.743879708008796e-4
12,-0.0017838582452736687,-0.0035555243460318976,1.097430554865015e-5
12.1,-0.001595813769631831,-0.003368581868328418,2.0485637122557524e-4
12.2,-0.0014044391095499008,-0.003181253879728612,4.032669932411536e-4
12.3,-0.001209755856621763,-0.00298663974514874,6.045611206623308e-4
12.4,-0.0010117856827118275,-0.0027873020972330907,8.024379693540177e-4
12.5,-8.105503406896251e-4,-0.0025843204893818486,0.00100335677105904
12.6,-6.060716651746382e-4,-0.0023778567949212523,0.0012073507178720008
12.7,-3.98371573291389e-4,-0.002167934391297522,0.0014150178180570181
12.8,-1.8747206543502648e-4,-0.0019545767453036838,0.0016256860778840485
12.9,2.660477395231408e-5,-0.0017379885231271217,0.0018393347665044465
13,2.4383677559435164e-4,-0.0015180523431745406,0.002055943074549437
13.1,4.642016845823136e-4,-0.0012947532196074972,0.0022769730223924983
13.2,6.87677159565343e-4,-0.0010681149609912156,0.0025030260472363756
13.3,9.142407719293843e-4,-8.381614694199027e-4,0.002731989647767958
13.4,0.001143870004964279,-6.049167414168242e-4,0.0029638421300484837
13.5,0.0013765422530190212,-3.71400378881709e-4,0.003198561714122863
13.6,0.001612234820644696,-1.3673100885371308e-4,0.003436126533190164
13.7,0.0018509249217251176,1.0112800050168878e-4,0.003676514632762163
13.8,0.002092589678594794,3.421528119830451e-4,0.003919703969809654
13.9,0.002337206121143941,5.863194924659839e-4,0.0041659198191036865
14,0.0025847511859104725,8.333030222367806e-4,0.00441177751242918
14.1,0.0028352017151584757,0.0010833012673602026,0.004660396957414112
14.2,0.0030885344559431187,0.001336370163097885,0.00491171594636176
14.3,0.0033447260591616523,0.0015924854944658444,0.005165712338890682
14.4,0.0036037530785901052,0.0018533738579113923,0.005422272218100356
14.5,0.0038655919699056842,0.0021144413016613486,0.005681287667551031
14.6,0.004130219089694255,0.0023794885730162602,0.005942911298132873
14.7,0.0043976106944428614,0.002649712191818126,0.006210235054252589
14.8,0.004667742939516923,0.0029228640956794373,0.0064805295601047305
14.9,0.004940591878121657,0.0031990288231737675,0.006751413807130195
15,0.005216133460247681,0.003476231672947753,0.007020673253165087
15.1,0.005494343531600189,0.0037598883297349462,0.007292195574312864
15.2,0.005775197832511569,0.004042897560405607,0.007567075715648908
15.3,0.00605867199683708,0.004330809205294415,0.007847502235363554
15.4,0.0063447415508331145,0.004619976899689656,0.008130156797472862
15.5,0.006633381912017913,0.0049118792284612535,0.00841323716776484
15.6,0.00692456838801414,0.005206490350979261,0.008700344373753475
15.7,0.007218276175373114,0.005503784309991191,0.008989713874402346
15.8,0.007514480358380236,0.005803735030359185,0.009281089426819253
15.9,0.007813155907841141,0.006106116812294924,0.009572408000020207
16,0.00811427767984842,0.006411336377411643,0.00986781833094533
16.1,0.008417820414528142,0.00672006788772967,0.010168958190726673
16.2,0.008723758734766066,0.0070329423409993055,0.010471638186503965
16.3,0.009032067144912947,0.0073486690859531885,0.010774265188454667
16.4,0.009342720029468465,0.007663562898577323,0.01107904967038239
16.5,0.009655691651743459,0.00798310667988357,0.011386325521167842
16.6,0.009970956152499795,0.008303454384158929,0.011695660608578153
16.7,0.01028848754856756,0.008624212971896118,0.01200708450753886
16.8,0.010608259731439026,0.008949398943252451,0.012324153761009498
16.9,0.01093024646583873,0.009277215962191387,0.012635650674438545
17,0.011254421388269466,0.009607506449406899,0.012951797357367746
17.1,0.011580758005533228,0.009936156380110465,0.013267840980653542
17.2,0.011909229693226955,0.010266863677165582,0.01358586604232157
17.3,0.012239809694212221,0.010602635993863673,0.013905847805920734
17.4,0.012572471117058382,0.01094241211217634,0.01423551061721272
17.5,0.012907186934458649,0.011285755497347904,0.01456839586526194
17.6,0.013243929981618293,0.011625050459006454,0.014903183004240258
17.7,0.013582672954614513,0.011969957505740574,0.0152398419471372
17.8,0.013923388408727254,0.01231552671723051,0.015576617691118393
17.9,0.014266048756740195,0.012664006000947572,0.015911683419691278
18,0.01461062626721144,0.013017477645628227,0.016247386989793795
18.1,0.014957093062712931,0.013371602841469137,0.01658820171595469
18.2,0.015305421118038072,0.013725295885943426,0.016928645002388252
18.3,0.015655582258376675,0.014078613646667149,0.017270189015002185
18.4,0.016007548157456496,0.014433860286477583,0.017617251150420295
18.5,0.01636129033565058,0.014793879434174451,0.01797070371090467
18.6,0.016716780158049498,0.015155236476840393,0.01832143939439804
18.7,0.01707398883249776,0.015516733954281032,0.018673778231592827
18.8,0.01743288740759346,0.015881696166515403,0.019027537328392213
18.9,0.017793446770650163,0.01625179566710697,0.019384792637129958
19,0.018155637645620355,0.016615265579397458,0.01974085283238896
19.1,0.018519430590979137,0.016985060482417526,0.020104662522923013
19.2,0.018884795997567583,0.017356971889246894,0.020472044414427817
19.3,0.019251704086394407,0.01773342725489948,0.020833822375789422
19.4,0.01962012490639506,0.018106766022744653,0.02120143362207109
19.5,0.0199900283321472,0.018482178597199042,0.021565987931352202
19.6,0.02036138406154126,0.018857804124337917,0.02193223767171055
19.7,0.020734161613405203,0.01923558340839928,0.022298513625259062
19.8,0.021108330325082015,0.019614874995468073,0.0226659791391562
19.9,0.021483859349958927,0.019995647401941128,0.02303448980763584
20,0.021860717654947057,0.02037786895604258,0.023406366224882985
20.1,0.02223887401791001,0.020761586033622985,0.0237780352446725
20.2,0.02261829702504032,0.021149447820215325,0.024150706140372076
20.3,0.022998955068182267,0.021540292309662777,0.024527086909217094
20.4,0.023380816342099483,0.021932106040235735,0.024904863055017355
20.5,0.02376384884168617,0.02231991463951733,0.02528363036758648
20.6,0.024148020359120087,0.02270341024801475,0.0256632863722433
20.7,0.024533298480955913,0.02309138717568028,0.026043757120783384
20.8,0.024919650585157403,0.023480751895341528,0.02642516425222708
20.9,0.02530704383806635,0.023871416120943408,0.026804482844653324
21,0.02569544519130706,0.02426342066404513,0.02718428359471305
21.1,0.026084821378624064,0.02466037987127657,0.027566971931196678
21.2,0.026475138912651568,0.02505282571350054,0.02795176135886328
21.3,0.026866364081612585,0.025451344487467827,0.02835287964888196
21.4,0.02725846294594556,0.02584792909061021,0.028736330578355965
21.5,0.027651401334856846,0.02624870910195652,0.02911722029245426
21.6,0.028045144842796403,0.026649524593064886,0.0294982306822937
21.7,0.028439658825854933,0.027054376105249564,0.029883300508388715
21.8,0.028834908398079888,0.027456383648211218,0.030267006502421555
21.9,0.029230858427707975,0.027861073026262975,0.030661186765282164
22,0.029627473533312014,0.02827075363909573,0.031052949882152844
22.1,0.030024718079859056,0.02867911368307734,0.031441994281486606
22.2,0.030422556174677665,0.029089566835429414,0.031833627152213814
22.3,0.030820951663331292,0.029494342610249275,0.032225722020823785
22.4,0.03121986812539494,0.029896284245002663,0.032618640360743176
22.5,0.03161926887013234,0.030301490066847393,0.033010590495978154
22.6,0.032019116932070324,0.030700782309778334,0.033408891891475626
22.7,0.03241937506646744,0.03109690159948706,0.03381473512499856
22.8,0.03282000574467348,0.0315016947575299,0.034220894564841876
22.9,0.03322097114937628,0.03190802215825344,0.0346197986328637
23,0.033622233169732625,0.032312274971296004,0.035009787247292624
23.1,0.0340237533963792,0.03271354901657349,0.03539838436622056
23.2,0.03442549311631996,0.033119458971611414,0.035787742032371915
23.3,0.03482741330768605,0.03352191373381754,0.03618343866017739
23.4,0.0352294746343636,0.033926486563048856,0.03658281801774958
23.5,0.03563163744048592,0.034333292707092095,0.036980499912120435
23.6,0.03603386174478479,0.03473807263987423,0.037368211081233275
23.7,0.03643610723479679,0.03514408436984558,0.03776580328818191
23.8,0.036838333260919495,0.035559852437610645,0.03816405892551866
23.9,0.03724049883031259,0.035973036779281556,0.03857161725571807
24,0.03764256260063874,0.03637200412239675,0.03896963511296426
24.1,0.03804448287363843,0.036772957686564335,0.039367064137028895
24.2,0.03844621758853359,0.037180032903718165,0.039763244136045484
24.3,0.03884772431525354,0.03759012550870523,0.040158049326432355
24.4,0.03924896024747738,0.03799851392537096,0.040554918207464714
24.5,0.03964988219548629,0.03840386939122304,0.04094840198361762
24.6,0.040050446578818934,0.03880403055855006,0.041343551747971774
24.7,0.04045060941872303,0.039210290014715966,0.04173810308437141
24.8,0.040850326330395745,0.03961633112859593,0.04213259310493477
24.9,0.04124955251500516,0.04002130824198959,0.042524880092359794
25,0.041648242751484946,0.04042460692320688,0.042919065014414025
25.1,0.042046351388093706,0.04082894269829511,0.043319951178294167
25.2,0.04244383233373049,0.04123294949086196,0.04371339724096921
25.3,0.042840639048997174,0.04163742068146348,0.044102740719408624
25.4,0.04323672453699812,0.04203784426802385,0.04449123677472469
25.5,0.04363204133386736,0.04243980243653998,0.04488527880792528
25.6,0.044026541499012584,0.042839091056889426,0.045276472651500324
25.7,0.04442017660506509,0.043233865859885874,0.04567112148801728
25.8,0.04481289772752436,0.04362902773117461,0.04606975538985054
25.9,0.045204655434084924,0.04402757251942992,0.046459267004138285
26,0.04559539977363346,0.04442453933605685,0.046841030737046666
26.1,0.04598508026490211,0.044815192271180984,0.047221302823004976
26.2,0.046373645884765224,0.04520307712895806,0.04760291832415191
26.3,0.046761045056163984,0.04559548631628883,0.04798012551060181
26.4,0.047147225635644344,0.045988594763597165,0.048369962116319505
26.5,0.047532134900492046,0.04637871632626786,0.04875664342370598
26.6,0.04791571953544775,0.04675270390876617,0.04914181962825928
26.7,0.04829792561898487,0.047138219734336614,0.049525312478876635
26.8,0.048678698609131384,0.047523376411920115,0.04991123158916486
26.9,0.04905798332881594,0.04790798887741263,0.050285556475170995
27,0.04943572395071796,0.04829415067009057,0.05065359872591231
27.1,0.04981186398159983,0.04867472528231856,0.05102980315505727
27.2,0.050186346246098426,0.04904908126016613,0.05139683444066548
27.3,0.050559112869952086,0.049422990880383634,0.05176139398109871
27.4,0.05093010526263725,0.0497969039150659,0.05212822341139738
27.5,0.05129926409938864,0.05017186929314698,0.052500502326616474
27.6,0.051666529302574066,0.05054111934065901,0.05286367489132287
27.7,0.05203184002239464,0.05090684088606746,0.053224581843411375
27.8,0.05239513461687852,0.05127232823236955,0.05358483304981761
27.9,0.05275635063113522,0.05163922333211116,0.053949471408941595
28,0.05311542477583492,0.05199474176721997,0.05430461876936343
28.1,0.053472292904875915,0.05235146635943984,0.054662194279392756
28.2,0.053826889992200554,0.052706531393887576,0.05502426927606985
28.3,0.054179150107718135,0.05306233243920015,0.05537694120126192
28.4,0.05452900639229025,0.053411176380240954,0.05573150399928168
28.5,0.054876391031731815,0.05375822037013908,0.05607902691466539
28.6,0.05522123522977815,0.054104448358663154,0.05642422025580228
28.7,0.05556346917996498,0.05445381597991521,0.0567583071437969
28.8,0.05590302203636549,0.05479459653797934,0.057088652376037094
28.9,0.05623982188312457,0.05513184714488887,0.057415951348867164
29,0.05657379570272707,0.0554663665576834,0.057743002763412495
29.1,0.05690486934293211,0.05579808185724085,0.058068026095446056
