temp,mean,conf_lower,conf_upper
0,-0.016618717397548777,-0.03476598088242193,-0.0010341883250858455
0.1,-0.016195807447339228,-0.034285088878244344,-6.759863272223741e-4
0.2,-0.015769166343970353,-0.03378120065329723,-3.142000709591003e-4
0.3,-0.01533877068452677,-0.03329443865700792,5.1198251581643234e-5
0.4,-0.014904597117794627,-0.03279095546112455,4.202364888618963e-4
0.5,-0.014466622349973701,-0.032278385372082476,7.929425250738833e-4
0.6,-0.014024823150531385,-0.0317619322790595,0.0011693442751423058
0.7,-0.013579176358206102,-0.031240793861232897,0.0015494696795543533
0.8,-0.013129658887163942,-0.030715195216378065,0.0019332117195287792
0.9,-0.012676247733304724,-0.03018566681522732,0.0023354224071487698
1,-0.012218919980734155,-0.029652191841064313,0.002741419751504196
1.1,-0.011757652808382757,-0.029120355072904565,0.003142271431216025
1.2,-0.011292423496799098,-0.02858811239503488,0.0035521018586939287
1.3,-0.010823209435114445,-0.028065401673407993,0.003968201580134589
1.4,-0.010349988128157961,-0.027518836369185888,0.004387773917952965
1.5,-0.00987273720376508,-0.02698310217431539,0.004812039761552048
1.6,-0.009391434420251754,-0.026443243328555705,0.00524103611457008
1.7,-0.008906057674073653,-0.025899241831421962,0.005673262496734284
1.8,-0.0084165850076659,-0.025351079895073163,0.006115289465294844
1.9,-0.007922994617476198,-0.02479873995267601,0.006561727951052351
2,-0.007425264862178038,-0.024241278215409584,0.007003500222431989
2.1,-0.0069233742710893,-0.023679259786023272,0.007444725858423134
2.2,-0.006417301552783139,-0.023113011253865882,0.007906375821255598
2.3,-0.005907025603904936,-0.022542516136853978,0.008355649269123695
2.4,-0.005392525518191749,-0.021967758220561656,0.00881334493684064
2.5,-0.004873780595708033,-0.021388721567737107,0.009279093730610526
2.6,-0.004350770352282984,-0.020805390528005167,0.009748724568806339
2.7,-0.003823474529181914,-0.02021759349968779,0.01022575677068437
2.8,-0.003291873102990339,-0.019615968201345032,0.010723528478758362
2.9,-0.002755946295724565,-0.018997111004075567,0.011221494043698602
3,-0.0022156745851838466,-0.01837382394027584,0.011709697985376924
3.1,-0.0016710387155179363,-0.017746385352045216,0.01220215252679208
3.2,-0.0011220197080579752,-0.0171175907772635,0.01269761701883992
3.3,-5.685988723769797e-4,-0.016512465068562503,0.013197133803832143
3.4,-1.0757817600348663e-5,-0.01590280731674612,0.013700976181857425
3.5,5.515215360225034e-4,-0.015278773180801637,0.014209166254455105
3.6,0.0011182569452947155,-0.01465090439119738,0.014721412460084984
3.7,0.0016894658319834277,-0.014008821258436204,0.015229831209937598
3.8,0.0022651652704527847,-0.013361713488000339,0.01575820579158817
3.9,0.002845371975043809,-0.012710156251043783,0.016286638777867336
4,0.003430102287155845,-0.012055686345033435,0.016819089671066673
4.1,0.0040193721620544465,-0.011408584253493479,0.017363981419140168
4.2,0.0046131971553901585,-0.010741687495969526,0.01791367076515004
4.3,0.0052115924094122135,-0.010073879136473323,0.018464846786263134
4.4,0.005814572638892235,-0.009402532792394305,0.019002752558459523
4.5,0.006422152116741964,-0.008740035475385727,0.01954531117396897
4.6,0.007034344659315683,-0.00807890691280276,0.020130273464809088
4.7,0.007651163611393341,-0.007400138972582938,0.020705913621004667
4.8,0.008272621830843041,-0.006731378670120327,0.021292978145470164
4.9,0.008898731672959348,-0.006051563691755989,0.021861464142759423
5,0.009529504974446323,-0.00539192782179548,0.022462945431459002
5.1,0.010164953037095026,-0.004684083543960139,0.023073799661047317
5.2,0.010805086611077763,-0.004011891555910727,0.023666362563364945
5.3,0.0114499158778964,-0.0033276205419060477,0.02427891764684054
5.4,0.0120994504329896,-0.002622334216942239,0.024883808372630486
5.5,0.012753699267946172,-0.0019256369860670905,0.025490007131081977
5.6,0.013412670752359579,-0.0012360811680473954,0.026111272292387872
5.7,0.014076372615297428,-5.164590789060106e-4,0.026738146102888823
5.8,0.014744811926378831,2.1312364383237192e-4,0.027366050331170743
5.9,0.015417995076464075,9.490400279141137e-4,0.02799200106671706
6,0.016095927757929063,0.0016803798032016815,0.028617678655113273
6.1,0.016778614944553405,0.002416117037808592,0.029256098569154416
6.2,0.01746606087096131,0.003141698379607774,0.02990578888103414
6.3,0.018158269011647687,0.0038832445150241215,0.030572459855101774
6.4,0.01885524205959216,0.004615416582807522,0.03124380411135987
6.5,0.019556981904401416,0.005343687980164005,0.03191940075155181
6.6,0.02026348961002039,0.006060859119125864,0.03259985814418401
6.7,0.02097476539198423,0.006798986770370691,0.03328600056484868
6.8,0.02169080859420175,0.0075487892253940925,0.033976275331605826
6.9,0.022411617665256622,0.008275424496378352,0.03466358324962067
7,0.023137190134255137,0.009011722041655304,0.035348553301123575
7.1,0.02386752258615038,0.009777041208976295,0.03605282934107554
7.2,0.02460261063658281,0.01054723208320129,0.03676745868049856
7.3,0.025342448906214565,0.011320069195752056,0.03748887456027493
7.4,0.026087030994526417,0.012078962340436157,0.038220884873206504
7.5,0.02683634945311203,0.01285257836411622,0.03894498725282239
7.6,0.027590395758426867,0.013633285027046874,0.039667099383718096
7.7,0.028349160283979324,0.01441827551464401,0.04040864312362705
7.8,0.029112632271976524,0.015203938825906357,0.04114791509199871
7.9,0.02988079980440611,0.01598612837206343,0.04190170410567044
8,0.03065364977352475,0.01677200224676558,0.04266710661728208
8.1,0.03143116785178529,0.01757632981303644,0.04342554867683876
8.2,0.032213338461142216,0.01838684920307483,0.04418996121203643
8.3,0.03300014474176555,0.01919057310748644,0.04495874904946573
8.4,0.033791568520131265,0.019979025779207397,0.04573711718720795
8.5,0.03458759027647401,0.020805163998338726,0.04652187540621122
8.6,0.03538818911160563,0.021629638567431178,0.047289003707708846
8.7,0.03619334271308977,0.022442580276012022,0.04807494689439255
8.8,0.037003027320729964,0.023257152531472015,0.04886505746805721
8.9,0.03781721769140839,0.02407997264938732,0.04966686288975174
9,0.03863588706321236,0.02490953618033074,0.05046123147416026
9.1,0.039637745985638184,0.02596999994408626,0.05140155402580093
9.2,0.040645853882477156,0.02703742917688174,0.05234466326308765
9.3,0.041660195921622234,0.028117056277857586,0.05330722302888858
9.4,0.042680755718471575,0.02920531528825584,0.054270963619909435
9.5,0.04370751529654909,0.03028554871505585,0.05523895803236063
9.6,0.04474045504731733,0.031386620236578455,0.05621289668009413
9.7,0.04577955368920433,0.03248562045881211,0.05719275886691433
9.8,0.04682478822582664,0.03358364102377748,0.05818447338010416
9.9,0.04787613390337525,0.034698166178339346,0.059190806835678525
10,0.04893356416715605,0.035802324167107324,0.06019470202365469
10.1,0.04999705061729903,0.036919625339963846,0.06121573939052129
10.2,0.05106656296357387,0.03805033737687308,0.06224297895444207
10.3,0.052142068979316114,0.03918265858130361,0.0632813313209784
10.4,0.053223534454483634,0.04033027719183863,0.06432654013966904
10.5,0.05431092314775471,0.04148804326025454,0.06536914633259315
10.6,0.05540419673772384,0.042652245843546405,0.06642291953913214
10.7,0.05650331477312004,0.043791642885314244,0.06747794153182768
10.8,0.05760823462208592,0.04495784430916308,0.06854893460599304
10.9,0.058718911420444886,0.046133424952759274,0.06962374788549208
11,0.05983529801898907,0.04729293072794596,0.07070738149964191
11.1,0.06095734492973487,0.0484923717811406,0.07178390630294733
11.2,0.06208500027114289,0.04970418179596192,0.0728768656747251
11.3,0.06321820971227826,0.050903321224619325,0.07396232033174109
11.4,0.06435691641590352,0.052107023905362156,0.07505335515761251
11.5,0.06550106098048153,0.053321736016699456,0.07615864621841059
11.6,0.06665058138106056,0.054525905089792215,0.07726049974810018
11.7,0.06780541290901249,0.05572976351880265,0.07836429773530923
11.8,0.06896548811065611,0.05694367520824055,0.07948463559180999
11.9,0.07013073672465936,0.0581809665232878,0.08059673906587903
12,0.07130108561829201,0.05939424253383519,0.08171841211894323
12.1,0.07247645872245329,0.06061975105204284,0.08282935393529253
12.2,0.07365677696544887,0.06185764438631121,0.08394556459242894
12.3,0.0748419582055308,0.0631116627821154,0.08507720167237286
12.4,0.07603191716214369,0.06438449055580547,0.0862142600896787
12.5,0.07722656534588751,0.06566058112646732,0.08735888861096741
12.6,0.07842581098713436,0.06692872687601029,0.08850399142122878
12.7,0.07962955896333762,0.06822034409287082,0.08964839116138631
12.8,0.08083771072493179,0.0694911835575644,0.09079648481901445
12.9,0.08205016421985473,0.07076763113650028,0.09195364884386914
13,0.0832668138166604,0.07205913606812056,0.09312062283545633
13.1,0.08448755022618898,0.07334916596829433,0.09429730650093847
13.2,0.08571226042173202,0.07464872653725729,0.0954689515342377
13.3,0.08694082755778626,0.07592322971495881,0.09663820780001867
13.4,0.08817313088720696,0.07723488991575665,0.09781109420758129
13.5,0.08940904567686364,0.07853563632289562,0.09898694252615971
13.6,0.09064844312172077,0.07985294760130274,0.10016543408162815
13.7,0.09189119025728382,0.08116888405645571,0.10134636858081918
13.8,0.09313714987047755,0.08249586627598376,0.10255860552433849
13.9,0.09438618040883445,0.08380797039953064,0.1037579137740967
14,0.09563813588801245,0.08514594471991202,0.10496992130962315
14.1,0.09689286579758621,0.08647750535428618,0.10616779343737887
14.2,0.09815021500513516,0.08781344776258818,0.10736620308765771
14.3,0.09941002365848411,0.08915744888680291,0.10855658312197622
14.4,0.10067212708627543,0.09049971068293548,0.1097592721100149
14.5,0.10193635569657095,0.09184545043339526,0.11094617574021727
14.6,0.10320253487366232,0.09319459374821541,0.112152133029189
14.7,0.10447048487299254,0.09454522927189579,0.11335366374470417
14.8,0.10574002071413441,0.09589564324472603,0.11455134950101417
14.9,0.1070109520717713,0.09724947166136017,0.11574936464428
15,0.10828308316477969,0.09860178498776732,0.11694626882916632
15.1,0.10955621264317134,0.09995586070773006,0.11813610204625252
15.2,0.1108301334730813,0.10132202063405808,0.11933614435671563
15.3,0.11210463281955879,0.10267808725803904,0.12053093330711065
15.4,0.11337949192729063,0.10401704262663237,0.1217326133280428
15.5,0.11465448599916434,0.10536918095506764,0.12292868404158037
15.6,0.11592938407253844,0.10672670049609644,0.1241336189879422
15.7,0.11720394889341007,0.10808815884403396,0.1253300242419693
15.8,0.11847793678815305,0.1094387584900502,0.12654307512372903
15.9,0.11975109753302365,0.11077811436628372,0.12777329814829366
16,0.121023174221286,0.11212266810985116,0.12897903441389813
16.1,0.12229390312795269,0.11347516117479031,0.13019374848819856
16.2,0.12356301357205496,0.1148235743141672,0.13141510541451307
16.3,0.12483022777645175,0.11617678326343678,0.13261381636345698
16.4,0.12609526072509075,0.11751396728944333,0.13381554407212978
16.5,0.12735782001776325,0.11884976911866543,0.13500572691276
16.6,0.1286176057221547,0.12020675442911201,0.13622281350918647
16.7,0.1298743102233449,0.12155810293401502,0.13740704351391836
16.8,0.13112761807053613,0.12290468761834411,0.13860674889234045
16.9,0.1323772058210409,0.12423630692262369,0.13979212220659337
17,0.1336227418815477,0.12555471131590987,0.14097191750193075
17.1,0.13486388634644647,0.1268737496453529,0.14216882272816314
17.2,0.13610029083336245,0.12821844905380275,0.14333037097416215
17.3,0.13733159831571712,0.12953908835233335,0.14449012690246393
17.4,0.13855744295226075,0.13087585404011842,0.14564360864268414
17.5,0.13977744991366864,0.1321929151274379,0.14678736103196538
17.6,0.14099123520600526,0.13349332343296424,0.14791903045178328
17.7,0.14219840549097357,0.13476823953821293,0.1490633972618569
17.8,0.1433985579031452,0.13603135646945275,0.15020404462612277
17.9,0.144591279863805,0.13726651831979644,0.15134468105883378
18,0.1457761488915444,0.13851122630665724,0.15245604122894513
18.1,0.14695273240956125,0.1397641418505781,0.15357570102878051
18.2,0.14812058754943208,0.1410074971812254,0.15467246032482423
18.3,0.14927926095151395,0.14223585583651602,0.15575096977889513
18.4,0.1504282885618325,0.14346782306860306,0.15681082150465317
18.5,0.15156719542530045,0.14467993192924997,0.15786795569669207
18.6,0.15269549547539435,0.14587588561224327,0.15891674194880598
18.7,0.15381269132004022,0.1470827136288844,0.15995576568848943
18.8,0.15491827402382535,0.14826830693985535,0.16100561986488232
18.9,0.15601172288631965,0.1494390690903429,0.1620431803550334
19,0.15709250521650048,0.1505823255163092,0.16307044974644952
19.1,0.15816007610330401,0.15173109864537235,0.16409196346189295
19.2,0.15921387818207294,0.15283422336510238,0.1651083076139463
19.3,0.16025334139691766,0.1539159066671034,0.16611079255786457
19.4,0.16127788275899763,0.15502683627219668,0.16707727514574405
19.5,0.16228690610053104,0.156091882991437,0.16802492061667168
19.6,0.1632798018244535,0.15713408714928276,0.16895825059772088
19.7,0.16425594664983817,0.15815759987395386,0.16987131550800982
19.8,0.16521470335278315,0.15916942548428625,0.1708017196699721
19.9,0.1661554205027998,0.16015855077960964,0.1716907672243334
20,0.16707743219463317,0.16112472869885935,0.17256978091838449
20.1,0.16798005777541497,0.162080196404823,0.17342178336805641
20.2,0.16886260156714067,0.16301643893576676,0.17426806807106776
20.3,0.16972435258414437,0.16393321574093941,0.1750863384260112
20.4,0.17056458424590898,0.16483425306438945,0.17589421581428824
20.5,0.1713825540847645,0.16568166558999511,0.17667911475554232
20.6,0.17217750344844635,0.1665274089783861,0.1774379840927832
20.7,0.17294865719782254,0.16734294107014236,0.17815887088375773
20.8,0.17369522339900795,0.1681527263873889,0.17888526666504045
20.9,0.17441639301035644,0.16894051009172364,0.17957167421402515
21,0.1751113395641382,0.16970291007318916,0.1802387587716098
21.1,0.1757792188425767,0.17044188352558323,0.18088572224198432
21.2,0.17641916854827172,0.17114599359258903,0.18147681918129643
21.3,0.17703030796911384,0.17179687348294698,0.18204584361702056
21.4,0.17761173763732457,0.17241733515765928,0.18258313387224676
21.5,0.1781625389826152,0.17301738554266904,0.1830709596444556
21.6,0.17868177397956214,0.1735865957585528,0.18356260945151642
21.7,0.17916848478858888,0.17413549037618098,0.18400499169052004
21.8,0.17962169339119455,0.17465557685646987,0.1844203223235005
21.9,0.18004040121858084,0.17514318849371666,0.18478930044026057
22,0.1804235887741255,0.175596521570147,0.18512076806445854
22.1,0.18077021524940068,0.17601402393543622,0.18541572931215058
22.2,0.18107921813345734,0.1763894661517946,0.18571236342650663
22.3,0.18134951281557338,0.17673604603114787,0.18592878607128063
22.4,0.18157999218115678,0.17702361007177098,0.18612402869571426
22.5,0.18176952620089476,0.1772612018997008,0.18624905902904992
22.6,0.18191696151257447,0.17745687309055652,0.1863777480191774
22.7,0.1820211209961043,0.17758930425826353,0.18647272219639452
22.8,0.1820808033411943,0.17765569460008493,0.1865389712842951
22.9,0.18209478260763562,0.177679425470406,0.18652157061769722
23,0.18206180777789865,0.17764844986665929,0.18651012093995642
23.1,0.1819806023027682,0.1775526991843761,0.186470473138082
23.2,0.1818498636384736,0.17739424053591313,0.1863455594544226
23.3,0.18166826277657383,0.1771852172749629,0.186184545184703
23.4,0.18143444376545076,0.17694389580402714,0.18595717755539926
23.5,0.1811470232239339,0.17663636012019152,0.18574529707279114
23.6,0.18080458984676434,0.1762300418936542,0.18545851140166775
23.7,0.18040570390116156,0.17577415538697289,0.18515648817394215
23.8,0.17994889671576458,0.17528180069013796,0.18476908787774862
23.9,0.17943267015997694,0.174691252419648,0.18434407082283322
24,0.17885549611527934,0.17398217278623634,0.18387558645385393
24.1,0.17821581593703978,0.17320186122794956,0.18334558198697448
24.2,0.17751203990776904,0.1723949050683889,0.1828200681699245
24.3,0.1767425466806392,0.17146979062110254,0.1822002573184429
24.4,0.1759056827140067,0.1704308921769212,0.1815674292267037
24.5,0.1749997616963544,0.16932104365399872,0.1808584295696396
24.6,0.17402306396126727,0.16812734818379643,0.18007803672534528
24.7,0.1729738358931024,0.16685105337670333,0.1792335410465412
24.8,0.17185028932190188,0.16552819104748898,0.1783110595924901
24.9,0.17065060090898437,0.16406943199927343,0.1773147304021988
25,0.16937291152174466,0.1625389191490407,0.17627803507396805
25.1,0.16801532559786142,0.16093706188118637,0.1752105427703143
25.2,0.16657591049930104,0.15923148797189965,0.17411156302795328
25.3,0.16505269585494392,0.1574343603880189,0.17294510325154783
25.4,0.16344367289262635,0.15551938010114144,0.17167036548152248
25.5,0.16174679375994333,0.15351009086909084,0.17029097323480236
25.6,0.15995997083335772,0.15140321408864457,0.16888738796641145
25.7,0.15808107601628524,0.14913107135016604,0.1673967425358026
25.8,0.15610794002486755,0.14680358695074094,0.16583766384339083
25.9,0.15403835166249485,0.14434756464152926,0.16414125157335518
26,0.151870057081329,0.1417463979014698,0.1623685035580237
26.1,0.14960075903250064,0.13896940276748979,0.16051845014816074
26.2,0.14722811610320746,0.13610272423892372,0.15861008039267574
26.3,0.1447497419409996,0.13312730817235757,0.15659901542666763
26.4,0.14216320446573177,0.13010320332163233,0.1545035966682272
26.5,0.13946602506766875,0.12697858462272477,0.15232882821889204
26.6,0.1366556777930053,0.12360115610645347,0.1500565520646364
26.7,0.13372958851511402,0.12015014812961414,0.14766626656350276
26.8,0.13068513409255839,0.11645871580898695,0.1451833506311147
26.9,0.1275196415130842,0.11261486159793882,0.14259173290447044
27,0.1242303870229507,0.10863448034949894,0.13995389403807534
27.1,0.12081459524234744,0.10457210445337203,0.13721008679827404
27.2,0.11726943826582598,0.1003161556661667,0.13435689347696456
27.3,0.113592034748151,0.09593003465189125,0.13141853499575612
27.4,0.10977944897450548,0.09138454375678684,0.12827924052615025
27.5,0.10582868991564204,0.08665929122126012,0.12502183159128236
27.6,0.10173671026772829,0.08178117850170431,0.12164025607096882
27.7,0.09750040547531774,0.07672267768723467,0.11815544220320924
27.8,0.09311661273946942,0.07140337734226808,0.1145418525148558
27.9,0.08858211000830823,0.06590692508962262,0.1108568732238942
28,0.0838936149515857,0.060210691056178545,0.10704774023043835
28.1,0.07904778391842743,0.054339373693621164,0.10316222614518306
28.2,0.07404121087724508,0.04822212707710278,0.09918938683229611
28.3,0.06887042633877655,0.041924940272362536,0.09509134100195843
28.4,0.06353189626108718,0.03543629365665388,0.09084877871442265
28.5,0.05802202093683856,0.028739572692922932,0.08632983883978858
28.6,0.0523371338617305,0.021828915571849336,0.08166796240336838
28.7,0.046473500584670646,0.01471672540938676,0.07684694266662337
28.8,0.040427317539392604,0.007396296951769646,0.07188565947102293
28.9,0.03419471085583431,-1.9349524782372174e-4,0.06681329042003295
29,0.02777173515331227,-0.00805775268657509,0.0616569470856695
29.1,0.02115437231263889,-0.016128879651322425,0.05639059646537346
29.2,0.014338530228947655,-0.02444159010247575,0.05099176603209498
29.3,0.007320041543869948,-0.03302643454329181,0.045424370952185225
29.4,9.466235659100208e-5,-0.0418717578499201,0.03969501751437592
29.5,-0.0073419290858597885,-0.05090367381208373,0.033811081966301414
29.6,-0.014994133719935021,-0.06004886925158985,0.027752337574020486
29.7,-0.02286643301831298,-0.0694624319742482,0.021520418848901518
29.8,-0.03096339036563006,-0.07922904632176322,0.015126690277599941
29.9,-0.03928965245586785,-0.0894149748389383,0.008543093626177695
30,-0.047849950712692546,-0.09995367741176879,0.0017840949993384314
30.1,-0.056649102733786705,-0.11078706575374503,-0.005173998979025929
30.2,-0.06569201375745298,-0.12192147860707311,-0.012318636336953542
30.3,-0.07498367815448387,-0.13335979137232581,-0.01964316399704623
30.4,-0.08452918094365697,-0.14510606223497388,-0.027161148814949895
