temp,mean,conf_lower,conf_upper
0,2.413928984296927,2.1469505598413177,2.659733756055795
0.1,2.4149741423589632,2.149229857918728,2.6597965251687183
0.2,2.415999681558757,2.1514878610617654,2.659843809770185
0.3,2.4170056018963093,2.1534307279804126,2.660092180749788
0.4,2.417991903371618,2.155448691716354,2.660331690996002
0.5,2.4189585859846856,2.1576229255428134,2.6603648988822726
0.6,2.4199056497355103,2.159855997036768,2.660385090195966
0.7,2.4208330946240926,2.161877555764601,2.660392264937081
0.8,2.421740920650432,2.163948534941179,2.6603864231056185
0.9,2.42262912781453,2.165990928009226,2.6603675647015783
1,2.423497716116385,2.168009649128069,2.6603227978597643
1.1,2.4243466855559976,2.17001583012236,2.660254191693242
1.2,2.4251760361333683,2.171939001126243,2.660044494673589
1.3,2.4259857678484966,2.173374899669125,2.659645009850271
1.4,2.426775880701382,2.1753337307085547,2.659223725205407
1.5,2.4275463746920254,2.1773273439597087,2.65878974918488
1.6,2.4282972498204263,2.1785996452388394,2.658746256176488
1.7,2.429028506086585,2.1800885510050487,2.6584785959194948
1.8,2.429740143490501,2.1819574535694075,2.65824709866723
1.9,2.430432162032175,2.1833377698598815,2.6580690263802866
2,2.4311045617116065,2.184742368169702,2.657983020159396
2.1,2.4317573425287953,2.1863492538572205,2.657800991874658
2.2,2.432390504483742,2.187556195921598,2.6575946593933235
2.3,2.4330040475764463,2.1887394539962184,2.657391429296384
2.4,2.4335979718069085,2.1904340513677543,2.657310748890973
2.5,2.434172277175128,2.1919075285775347,2.6572866645711075
2.6,2.434726963681105,2.1930345172969608,2.6571916719959443
2.7,2.4352620313248403,2.1945317147674213,2.657129023447183
2.8,2.4357774801063323,2.19628881135949,2.6567275156750556
2.9,2.436273310025583,2.1976816750466046,2.6563054426506865
3,2.4367495210825902,2.19903687800701,2.656168422692374
3.1,2.437206113277356,2.2000956345631932,2.6560161639497277
3.2,2.437643086609879,2.2012288891021843,2.6558322736440374
3.3,2.438060441080159,2.2023655909334896,2.655666783080407
3.4,2.4384581766881976,2.203716287776211,2.6554830695356184
3.5,2.4388362934339938,2.204346228257303,2.655439145312958
3.6,2.439194791317547,2.205312205601107,2.6553661350965307
3.7,2.439533670338858,2.2059616495499066,2.6554122624478436
3.8,2.439852930497927,2.2066032388979115,2.6551153614388543
3.9,2.440152571794753,2.207249854148464,2.654891695477777
4,2.4404325942293372,2.2078696714539916,2.654756172412818
4.1,2.440692997801679,2.2087321450891673,2.6545383631435593
4.2,2.4409337825117783,2.2092786648273073,2.6543433298458288
4.3,2.4411549483596353,2.2099661411825013,2.653945179784352
4.4,2.44135649534525,2.210621283495675,2.6534894502668305
4.5,2.4415384234686224,2.211256009595874,2.653136658455635
4.6,2.4417007327297515,2.211627614103308,2.6528168283700113
4.7,2.4418434231286392,2.211916982423893,2.6524100333793346
4.8,2.4419664946652846,2.2123099948549982,2.6519556399767015
4.9,2.442069947339687,2.2131971378248485,2.651792271225223
5,2.4421537811518474,2.2140558335811953,2.651777190286458
5.1,2.4422179961017654,2.2146331961550256,2.6514072965972098
5.2,2.442262592189441,2.2147461856987776,2.6509736139599562
5.3,2.4422875694148742,2.2151895193722027,2.65051697441423
5.4,2.442292927778065,2.215210694066137,2.6500422500961465
5.5,2.4422786672790133,2.2152354971499237,2.6495611235331786
5.6,2.442244787917719,2.21543161559602,2.649206183186741
5.7,2.4421912896941835,2.2157026947077645,2.6487766341183514
5.8,2.4421181726084047,2.2156619046432686,2.6486810678708226
5.9,2.4420254366603835,2.21559496133539,2.648355543393613
6,2.44191308185012,2.21559734686488,2.64802597106824
6.1,2.4417811081776146,2.215792206398696,2.647739313022707
6.2,2.4416295156428665,2.215834436782842,2.647509930378434
6.3,2.4414583042458755,2.2156100867163326,2.647003154021859
6.4,2.4412674739866427,2.2154825579883135,2.646686444121179
6.5,2.4410570248651675,2.215182315481459,2.6463630669456215
6.6,2.44082695688145,2.2153716006831425,2.6460234015939594
6.7,2.44057727003549,2.2150458988467134,2.6459993547848177
6.8,2.440307964327288,2.2145669741686165,2.645683568371735
6.9,2.4400190397568426,2.2140955215917417,2.64535547336848
7,2.439710496324156,2.213692064779459,2.6452046574973282
7.1,2.4393823340292267,2.213581724699912,2.6448620871859467
7.2,2.4390345528720543,2.2135284080986812,2.644505438863629
7.3,2.4386671528526405,2.213175537135932,2.644215227976275
7.4,2.4382801339709834,2.21254568013978,2.6439677232364924
7.5,2.437873496227085,2.2120993985158326,2.643674860982624
7.6,2.4374472396209437,2.211702176826159,2.643321028132804
7.7,2.43700136415256,2.2111180264263326,2.642876297172835
7.8,2.4365358698219337,2.210492131340378,2.6423593465064843
7.9,2.4360507566290655,2.2100655467136248,2.641813578475311
8,2.435546024573955,2.2094990568987996,2.641443111611194
8.1,2.4350216736566015,2.2090131246299753,2.6412002421344942
8.2,2.434477703877006,2.2084479116165445,2.6408568654398756
8.3,2.4339141152351678,2.2077173841179123,2.6407293753772807
8.4,2.4333309077310874,2.2072810054623053,2.640205689660809
8.5,2.4327280813647647,2.2064682496663464,2.639588575070859
8.6,2.4321056361361997,2.205848273877856,2.6390418346905724
8.7,2.4314635720453923,2.2046907784179615,2.6384826972476376
8.8,2.4308018890923426,2.203969771780759,2.637840246088624
8.9,2.4301205872770506,2.2032823123171728,2.637130658388826
9,2.4294196665995162,2.202406244402234,2.6364633409914724
9.1,2.431509982723589,2.2062821275679148,2.6371318628873746
9.2,2.4335610611231773,2.210163651015819,2.637773135373465
9.3,2.435572901798281,2.2140395294002007,2.6382063767850656
9.4,2.4375455047488996,2.217791490921175,2.6387300539242027
9.5,2.4394788699750336,2.221500474682014,2.6392135677868467
9.6,2.441372997476683,2.2251952232020273,2.6395260673644616
9.7,2.4432278872538475,2.228985303496467,2.639821793163299
9.8,2.4450435393065275,2.2326701414192427,2.640003609519712
9.9,2.4468199536347224,2.2358988541718134,2.64032001613944
10,2.4485571302384326,2.239517935843995,2.6403970674741224
10.1,2.4502550691176586,2.243225153731691,2.640604877939918
10.2,2.4519137702723994,2.2468793844948003,2.6406999186157765
10.3,2.453533233702655,2.250320602831661,2.6407570440606927
10.4,2.4551134594084267,2.253840425623999,2.640776254274667
10.5,2.456654447389713,2.257095708938763,2.6407455782190463
10.6,2.458156197646515,2.2603648783894474,2.640670489877877
10.7,2.459618710178832,2.2636320653680033,2.640564939055303
10.8,2.4610419849866645,2.266856773259395,2.6404406487984806
10.9,2.4624260220700123,2.2700390020636223,2.640390036311058
11,2.4637708214288754,2.273189814189988,2.6401528126879157
11.1,2.465076383063254,2.2762992512999856,2.640001803100615
11.2,2.4663427069731467,2.279365757609349,2.6399308931914787
11.3,2.4675697931585554,2.2823903750995447,2.639752774035662
11.4,2.4687576416194794,2.28537516125034,2.6396969279536586
11.5,2.4699062523559183,2.28831010289589,2.639599993302162
11.6,2.471015625367873,2.291277111952478,2.639312773851942
11.7,2.472085760655343,2.2942391534400692,2.639174662680402
11.8,2.473116658218328,2.2971606715133457,2.6390176131609078
11.9,2.474108318056828,2.3000411594975887,2.638817182211686
12,2.4750607401708438,2.302880617392801,2.638479945996351
12.1,2.4759739245603742,2.3056798348864795,2.6378973111779382
12.2,2.47684787122542,2.3080359608754017,2.637497854544138
12.3,2.4776825801659816,2.3102354940814886,2.6371331531778033
12.4,2.478478051382058,2.312603243944039,2.6367249100646077
12.5,2.47923428487365,2.314712827428629,2.63627312520455
12.6,2.4799512806407567,2.31677890458971,2.6357777985976316
12.7,2.480629038683379,2.3191815846506674,2.635238930243852
12.8,2.481267559001517,2.321584808231087,2.634601006919473
12.9,2.4818668415951697,2.3239268166473224,2.633907171297305
13,2.4824268864643373,2.326228334909291,2.6331698487716166
13.1,2.4829476936090207,2.3286201212346453,2.6323519464005667
13.2,2.4834292630292194,2.330907877453555,2.631324525462019
13.3,2.483871594724933,2.3331452799943158,2.630570415795355
13.4,2.4842746886961624,2.3353292408128334,2.6297436110094994
13.5,2.4846385449429067,2.3374648523823818,2.6287199238571644
13.6,2.4849631634651663,2.339553301633092,2.6276570918440374
13.7,2.4852485442629413,2.3415955347065984,2.6265543319070153
13.8,2.4854946873362316,2.3435777460646747,2.6254081805298988
13.9,2.4857015926850368,2.345507666819572,2.624222942904241
14,2.4858692603093573,2.3473949641207117,2.6229986190300423
14.1,2.485997690209193,2.349239637968094,2.621735208907302
14.2,2.4860868823845443,2.3509360779664976,2.6204903243772506
14.3,2.486136836835411,2.3525510699594014,2.6192111582418973
14.4,2.4861475535617927,2.3541252673085395,2.6177251088070173
14.5,2.4861190325636895,2.3556586700139133,2.6161845837980797
14.6,2.4860512738411016,2.357149846562221,2.6144306841445015
14.7,2.4859442773940295,2.3586360020078567,2.612649005028257
14.8,2.4857980432224718,2.3601071804970606,2.6109809155770076
14.9,2.48561257132643,2.3615170605312548,2.6091770324573353
15,2.485387861705903,2.3628874582765484,2.6073106442581526
15.1,2.4851239143608916,2.3641870925811332,2.6053299146381033
15.2,2.4848207292913953,2.365469599671198,2.6033447759067707
15.3,2.4844783064974143,2.3667111365131985,2.6013363200913213
15.4,2.4840966459789486,2.367910855308493,2.599290022505873
15.5,2.4836757477359983,2.3689787088696783,2.5972058831504254
15.6,2.483215611768563,2.3699963392699392,2.595083902024978
15.7,2.4827162380766428,2.3711790025750656,2.5929240791295323
15.8,2.4821776266602384,2.3723874967379315,2.5908540859698084
15.9,2.4815997775193486,2.3732846256735094,2.5884848448784803
16,2.4809826906539745,2.3739024200904355,2.58620413280901
16.1,2.4803263660641157,2.374698679601633,2.5842139604787873
16.2,2.479630803749772,2.375548463199306,2.582302526896364
16.3,2.4788960037109433,2.376183018514655,2.580244865962955
16.4,2.47812196594763,2.3770677837602934,2.578277249986871
16.5,2.4773086904598323,2.377584952966659,2.5759237543145614
16.6,2.4764561772475497,2.37799193936574,2.573503064451163
16.7,2.4755644263107826,2.3787088954138627,2.5711851894167834
16.8,2.4746334376495307,2.379155824078967,2.5687527752605606
16.9,2.4736632112637933,2.3793771241798374,2.5664993954447475
17,2.4726537471535717,2.3796531592016574,2.5641516727859868
17.1,2.4716050453188654,2.37985512727019,2.5619427260129948
17.2,2.4705171057596744,2.380138718021122,2.559531330893
17.3,2.469389928475999,2.3802994643801956,2.557151447056419
17.4,2.468223513467838,2.3807168941127603,2.55471593707883
17.5,2.4670178607351927,2.381103932405244,2.552246557994426
17.6,2.4657729702780626,2.3812973016556533,2.5495610104979285
17.7,2.464488842096448,2.3813080895855587,2.547399891286483
17.8,2.463165476190348,2.3809967097508746,2.544924737858814
17.9,2.4618028725597636,2.380745518530217,2.5424734402931985
18,2.460401031204695,2.3804730568599197,2.5399899014565372
18.1,2.458959952125141,2.3803277993231706,2.537561154354432
18.2,2.4574796353211026,2.3801546346361917,2.53491611975128
18.3,2.455960080792579,2.3796322027603827,2.532674776636931
18.4,2.454401288539571,2.3790626369079533,2.530486820348149
18.5,2.4528032585620787,2.378642691430283,2.5280873178663996
18.6,2.451165990860101,2.3784025533339115,2.525577827167705
18.7,2.449489485433639,2.3778262921555955,2.523031612655504
18.8,2.4477737422826915,2.377360721668535,2.5204459287544094
18.9,2.4460187614072604,2.376781539196366,2.517825834358195
19,2.4442245428073437,2.3761616348300043,2.515258368104469
19.1,2.4423910864829423,2.3756363705843384,2.5124888599384754
19.2,2.4405183924340568,2.374771175967253,2.5096095937135585
19.3,2.4386064606606856,2.3732654710640673,2.5065094354603583
19.4,2.4366552911628307,2.3719349355180985,2.503365970350827
19.5,2.4346648839404903,2.3709448678925584,2.5002076201248853
19.6,2.432635238993665,2.3692765664575983,2.497426322633311
19.7,2.4305663563223554,2.367875048722607,2.494410944526297
19.8,2.4284582359265614,2.36703327978545,2.491410689075515
19.9,2.4263108778062823,2.3656903332797525,2.4884156829206145
20,2.424124281961518,2.364360575711664,2.48553394763832
20.1,2.4218984483922696,2.362889156853493,2.4828570341530947
20.2,2.4196333770985365,2.3609680168826457,2.479737542312445
20.3,2.4173290680803183,2.3589091230650157,2.4763835760044604
20.4,2.4149855213376155,2.3575961703853228,2.473431437200688
20.5,2.4126027368704275,2.3560216389977775,2.4708781681787957
20.6,2.4101807146787557,2.353783465853816,2.467996699286842
20.7,2.4077194547625984,2.3517956420551807,2.4653450569481166
20.8,2.4052189571219564,2.3504786910472015,2.4621278833616067
20.9,2.40267922175683,2.348200901831774,2.459059539473999
21,2.4001002486672185,2.3463765758188,2.45625774299322
21.1,2.3974820378531225,2.343880896218458,2.4535660830688886
21.2,2.394824589314542,2.3417707483000982,2.4505779383576387
21.3,2.3921279030514766,2.3394035084973073,2.447449331064692
21.4,2.389391979063926,2.3372373416581382,2.44448469228976
21.5,2.386616817351891,2.334138605327344,2.4416594722930562
21.6,2.3838024179153714,2.3317247221681088,2.43900102876514
21.7,2.380948780754367,2.3287347018886475,2.436283330656927
21.8,2.3780559058688775,2.32547573759721,2.4332755736879492
21.9,2.3751237932589033,2.3223898788442465,2.43075715073158
22,2.372152442924445,2.3192109355855184,2.4280306118060047
22.1,2.3691418548655014,2.3162323628119674,2.425201744257145
22.2,2.3660920290820733,2.3130476241398323,2.422350354252559
22.3,2.36300296557416,2.3100124830276765,2.418959313658715
22.4,2.359874664341763,2.3066973794931043,2.41554928582526
22.5,2.3567071253848804,2.303661169432919,2.4125832022311338
22.6,2.3535003487035127,2.3003432688352436,2.4094639790973673
22.7,2.350254334297661,2.2967635662906183,2.4059339432555227
22.8,2.3469690821673246,2.293151798679081,2.402567849370615
22.9,2.3436445923125033,2.290008910334098,2.3996302032515198
23,2.340280864733197,2.2866672450489243,2.3967974319378866
23.1,2.336877899429406,2.2831946448607545,2.3936849666943463
23.2,2.3334356964011302,2.279147503268173,2.3904223317134266
23.3,2.3299542556483708,2.275441514378094,2.387137037161981
23.4,2.326433577171125,2.2709261082308005,2.3837009981619257
23.5,2.322873660969395,2.2663247586931607,2.380090679296176
23.6,2.3192745070431804,2.2619874641131688,2.3767541878206173
23.7,2.3156361153924814,2.2577924021287004,2.3735406680105373
23.8,2.3119584860172973,2.25319518371009,2.3707006583092562
23.9,2.3082416189176285,2.2485870382544624,2.3676139825307114
24,2.304485514093475,2.2441836066380394,2.3644659070821152
24.1,2.300690171544837,2.2401847831719213,2.3612511889337737
24.2,2.2968555912717137,2.2354841974214263,2.3583199670946913
24.3,2.292981773274106,2.2304879652713505,2.354948533464581
24.4,2.2890687175520132,2.225616162470696,2.3516948747698803
24.5,2.2851164241054356,2.2209548953983638,2.3485655031497235
24.6,2.281124892934374,2.216306892747177,2.3452987118252873
24.7,2.277094124038827,2.2110748005697083,2.342226868608728
24.8,2.273024117418796,2.2060419080331775,2.3388823836905392
24.9,2.268914873074279,2.201077296692631,2.3358476795361782
25,2.2647663910052787,2.1959128260137195,2.3328708206685427
25.1,2.2605786712117926,2.1907772976797424,2.3297444313101274
25.2,2.2563517136938223,2.1860899456195564,2.3263528746924966
25.3,2.2520855184513673,2.1810815801250234,2.3228875672559184
25.4,2.247780085484427,2.175771447356274,2.3193369241677835
25.5,2.2434354147930025,2.1706201087189143,2.316127959484281
25.6,2.239051506377093,2.1653975429935874,2.3126320067306896
25.7,2.234628360236699,2.1597668021474483,2.309031258567488
25.8,2.2301659763718202,2.1538966711943552,2.3054262200823246
25.9,2.2256643547824564,2.1480141963367947,2.3019578197155512
26,2.221123495468608,2.142046217504944,2.298653644280363
26.1,2.2165433984302747,2.136216299549986,2.295465989997123
26.2,2.211924063667457,2.1306306572478717,2.2921632395004967
26.3,2.207265491180155,2.124853375441371,2.288652305745421
26.4,2.202567680968367,2.119358480881959,2.2852072797193763
26.5,2.197830633032095,2.1134623055258883,2.2813932921635924
26.6,2.193054347371338,2.107515766037938,2.277622854583724
26.7,2.1882388239860964,2.100826327770991,2.2741477167391135
26.8,2.18338406287637,2.0945437200542782,2.2704671630037465
26.9,2.178490064042159,2.0882650012387245,2.2668520217508985
27,2.173556827483463,2.0817680156993603,2.2632690949441696
27.1,2.1685843532002824,2.0751894805668587,2.2599506345054676
27.2,2.1635726411926175,2.068798389722835,2.2566044903366063
27.3,2.1585216914604675,2.062331892557398,2.252828914128729
27.4,2.1534315040038328,2.0559995268863447,2.249476165808651
27.5,2.148302078822713,2.0496252541507194,2.2460833265486304
27.6,2.1431334159171085,2.0431376496559044,2.242228742936153
27.7,2.1379255152870194,2.036519697323251,2.2383380034077485
27.8,2.132678376932446,2.0297938375418236,2.2343334130491708
27.9,2.1273920008533875,2.0226091875130794,2.230463471566157
28,2.122066387049844,2.015739791312979,2.2263542334103494
28.1,2.116701535521816,2.0088985377990873,2.222375812997905
28.2,2.1112974462693037,2.0023629450349802,2.218284681407775
28.3,2.105854119292306,1.9956327867698547,2.214155693198953
28.4,2.100371554590824,1.988579509354842,2.209988848371439
28.5,2.094849752164857,1.9815719191431198,2.2057721758865814
28.6,2.0892887120144055,1.9747676474537814,2.2016358256533364
28.7,2.083688434139469,1.96797072562405,2.1976455102292283
28.8,2.0780489185400475,1.9611358854046936,2.1936388698147846
28.9,2.072370165216142,1.953871255651089,2.189695354243312
29,2.066652174167751,1.9464877214298077,2.1855567943575096
29.1,2.0608949453948755,1.9390629084804032,2.1812434824236075
29.2,2.0550984788975155,1.9315952610186098,2.1768489935524364
29.3,2.0492627746756704,1.9240858210258938,2.172346873105663
29.4,2.0433878327293415,1.916536645982022,2.167849326599973
29.5,2.0374736530585267,1.9091376991153919,2.1632893458251137
29.6,2.0315202356632276,1.9017993743869024,2.158562816204256
29.7,2.025527580543444,1.8944579180655428,2.1543557966888063
29.8,2.0194956876991754,1.887077774305994,2.150132989060444
29.9,2.013424557130422,1.879611186244613,2.145869950237396
30,2.0073141888371837,1.8719288042541677,2.1414732563832763
30.1,2.001164582819461,1.8642065839858748,2.1367757336106163
30.2,1.9949757390772533,1.856341869168166,2.1320865408330745
30.3,1.9887476576105612,1.8483497478496853,2.1274325478996285
30.4,1.9824803384193843,1.8405235973909764,2.1227276308071774
30.5,1.976173781503722,1.8325885272119589,2.1179803339326924
30.6,1.9698279868635753,1.824520899343464,2.1131906572761743
30.7,1.9634429544989445,1.8165993770917628,2.1083586008376223
30.8,1.9570186844098285,1.8086868765000994,2.1034286513933003
30.9,1.9505551765962275,1.8007195287814812,2.098443951616016
31,1.944052431058142,1.7926582972161604,2.093416926900039
31.1,1.9375104477955718,1.7847542146528244,2.088310484303528
31.2,1.9309292268085168,1.7766829866658214,2.082995685104348
31.3,1.9243087680969773,1.7683924253908996,2.0779553591418787
31.4,1.9176490716609527,1.7601733059303442,2.072843500025046
31.5,1.9109501375004434,1.7519084297706284,2.0675359205065615
31.6,1.9042119656154495,1.7435989838418833,2.062263052671001
31.7,1.8974345560059707,1.7352459142857435,2.057215235939081
31.8,1.8906179086720076,1.726835415563983,2.0521321237443892
31.9,1.8837620236135593,1.7183752187888512,2.047013716086925
32,1.8768669008306265,1.7098749911097717,2.041860012966689
32.1,1.8699325403232088,1.7013347325267432,2.03667101438368
32.2,1.8629589420913062,1.692754443039766,2.0315043321791304
32.3,1.855946106134919,1.6841341226488415,2.0260839907198385
32.4,1.8488940324540473,1.6754737713539676,2.0205956791075375
32.5,1.8418027210486907,1.666773389155145,2.0149380530570546
32.6,1.8346721719188492,1.6580315445390739,2.0091088596006585
32.7,1.8275023850645233,1.6492854425601473,2.0032626056346814
32.8,1.8202933604857123,1.6405251273646053,1.9975389420501308
32.9,1.8130450981824169,1.6317207515809424,1.991788621122685
33,1.8057575981546363,1.622878874389491,1.9859979074096363
