temp,mean,conf_lower,conf_upper
0,2.3140343600766418,2.061524874905277,2.5571978118386705
0.1,2.3153936959218413,2.0639395160833787,2.5573620377413477
0.2,2.3167329327694404,2.0663212729583886,2.55751346777678
0.3,2.31805207061944,2.0685870341437003,2.557652101944967
0.4,2.319351109471839,2.0708277463368145,2.5577779402459093
0.5,2.3206300493266374,2.0730434095377306,2.55788768805691
0.6,2.321888890183836,2.075234023746449,2.557981244844197
0.7,2.323127632043434,2.077517644968992,2.558062076327932
0.8,2.3243462749054324,2.0799119626274836,2.5581301825081137
0.9,2.3255448187698304,2.082341815141785,2.558185563384743
1,2.3267232636366275,2.0845230939886252,2.5582282189578196
1.1,2.327881609505825,2.086675332716339,2.558258149227343
1.2,2.329019856377422,2.0889697699237373,2.558275354193314
1.3,2.3301380042514195,2.091255521825331,2.5583954269543936
1.4,2.331236053127816,2.093513736550665,2.558474584696784
1.5,2.332314003006613,2.0957476370265087,2.558410944080931
1.6,2.333371853887809,2.0979576075111326,2.558320898480977
1.7,2.334409605771405,2.1001399568317636,2.558215312995091
1.8,2.335427258657401,2.1022917697171275,2.5581015564535443
1.9,2.336424812545797,2.104386947973142,2.5579803567299635
2,2.337402267436592,2.1064555262446576,2.557846774619314
2.1,2.3383596233297874,2.108497504531674,2.5577008101215966
2.2,2.3392968802253824,2.1105128828341915,2.557542463236811
2.3,2.3402140381233774,2.1124936612218055,2.5573717339649575
2.4,2.341111097023772,2.114388058644658,2.557188622306035
2.5,2.3419880569265663,2.116255932378652,2.5571453378283824
2.6,2.3428449178317603,2.118107236868385,2.557189389943662
2.7,2.343681679739354,2.119932295134353,2.557038089028575
2.8,2.344498342649348,2.1217307189838572,2.556851881850468
2.9,2.3452949065617412,2.1237093225629997,2.5566529432011538
3,2.346071371476535,2.1256789999317944,2.5564412730806305
3.1,2.3468277373937276,2.127420790981216,2.556346309573704
3.2,2.3475640043133206,2.129098610597237,2.5562351108723638
3.3,2.3482801722353135,2.1307550543005895,2.556165871907384
3.4,2.3489762411597055,2.1325263695690784,2.5560289372734184
3.5,2.349652211086498,2.1343297754146437,2.55593091607882
3.6,2.35030808201569,2.1359269104839247,2.5558183338507865
3.7,2.3509438539472813,2.1373232429770526,2.555691190589317
3.8,2.3515595268812737,2.1386976537591926,2.555328476317406
3.9,2.3521551008176647,2.1402046840181956,2.5548607509506835
4,2.3527305757564556,2.14150032147138,2.5546777453552596
4.1,2.3532859516976465,2.1429159557416573,2.5544148643148032
4.2,2.353821228641237,2.1443129733778576,2.553988332985102
4.3,2.354336406587228,2.1456948708037613,2.5535494225114466
4.4,2.354831485535618,2.14717055553583,2.5530981328938367
4.5,2.355306465486408,2.1487375388156185,2.552872606726659
4.6,2.3557613464395977,2.1498236843187204,2.5527254707081246
4.7,2.3561961283951876,2.151228693251472,2.5525472297828387
4.8,2.3566108113531774,2.152705379302198,2.5523526416364364
4.9,2.357005395313566,2.154153617466619,2.552050917472976
5,2.357379880276355,2.155572140292448,2.551407386660445
5.1,2.3600985519667548,2.1609766609041623,2.5515873030665617
5.2,2.362777025661953,2.1660458210697677,2.551518481815482
5.3,2.3654153013619514,2.1707886516062467,2.5517301163493675
5.4,2.368013379066749,2.175480144172422,2.5518957335220307
5.5,2.370571258776346,2.180308761966475,2.5522896014278538
5.6,2.3730889404907436,2.185251475537207,2.5525035314740543
5.7,2.3755664242099397,2.190221463496449,2.552676222537275
5.8,2.378003709933936,2.1949805210857045,2.5526775393823455
5.9,2.3804007976627317,2.199581300879121,2.5526745654710403
6,2.382757687396327,2.204154516371105,2.5528537175394503
6.1,2.3850743791347218,2.208863133375213,2.5530430596134894
6.2,2.387350872877916,2.213516834435651,2.553200953500384
6.3,2.3895871686259107,2.217986360159747,2.5532292009915976
6.4,2.3917832663787038,2.2225421928789846,2.5530696648206526
6.5,2.3939391661362968,2.226755458940399,2.552763191011386
6.6,2.3960548678986893,2.2309182258183187,2.552680922274288
6.7,2.3981303716658813,2.235032621504401,2.5525447266736525
6.8,2.400165677437874,2.2391202960074796,2.552231126690693
6.9,2.4021607852146647,2.243394805979959,2.5521587708062627
7,2.404115694996255,2.2477272927875656,2.5519870912899227
7.1,2.406030406782646,2.251733053491665,2.5519214766730354
7.2,2.407904920573836,2.255875402230161,2.5518094351938823
7.3,2.409739236369826,2.2597025575318046,2.5518998663378794
7.4,2.411533354170615,2.263478537570382,2.5519565112496085
7.5,2.413287273976204,2.26711837568204,2.551758407754499
7.6,2.415000995786592,2.2705738704386054,2.551594355429801
7.7,2.41667451960178,2.273885697760357,2.551532114843411
7.8,2.4183078454217677,2.277509234962155,2.5513430576087686
7.9,2.419900973246554,2.280990957167788,2.551231667854853
8,2.421453903076141,2.284197929137859,2.5507331596812772
8.1,2.4229666349105274,2.287665119523065,2.550413862109875
8.2,2.4244391687497124,2.290809025975479,2.550281305398551
8.3,2.4258715045936983,2.2938925320883294,2.5500635806047773
8.4,2.427263642442483,2.2973757318410826,2.5497985647585844
8.5,2.428615582296067,2.300643346259859,2.5494882479527945
8.6,2.4299273241544515,2.303743669821672,2.5489209320269417
8.7,2.4311988680176344,2.306730859336585,2.548656642446383
8.8,2.4324302138856186,2.309345236060856,2.548284753247028
8.9,2.4336213617584006,2.3119976928834634,2.5483402885435007
9,2.434772311635983,2.3148776486748153,2.5480917274993935
9.1,2.4358830635183644,2.317473092829034,2.547966137193945
9.2,2.4369536174055453,2.3202723813819697,2.547706269245153
9.3,2.4379839732975275,2.323019508117848,2.5473161206132833
9.4,2.4389741311943074,2.325756610407327,2.5468903032999073
9.5,2.4399240910958877,2.3280621610171925,2.546436536291626
9.6,2.4408338530022675,2.3302452058588266,2.5458777275937923
9.7,2.441703416913446,2.3327540200798906,2.545281991198313
9.8,2.442532782829425,2.3351558879197625,2.5446765888348857
9.9,2.443321950750203,2.3375029181175533,2.5444015117618566
10,2.4440709206757814,2.3394650434314403,2.5439013878876366
10.1,2.444779692606159,2.341408316099713,2.543430669247898
10.2,2.4454482665413355,2.3430346940848334,2.5428423172812042
10.3,2.4460766424813127,2.344659745948756,2.542318211039858
10.4,2.4466648204260886,2.3462425049521243,2.5416945418755743
10.5,2.447212800375665,2.347698836191036,2.5411703916431887
10.6,2.4477205823300396,2.3493575389181327,2.5405619926094163
10.7,2.4481881662892144,2.351019390985524,2.540132114463825
10.8,2.448615552253189,2.3525080854456255,2.5395756396247195
10.9,2.449002740221963,2.354153613356969,2.538881877449919
11,2.4493497301955367,2.355502558335295,2.5383283370865053
11.1,2.4496565221739095,2.3569695542771063,2.5374181814336145
11.2,2.4499231161570822,2.3582427755291766,2.5366089011972353
11.3,2.450149512145055,2.359337786341021,2.53595963431717
11.4,2.4503357101378267,2.360624377514873,2.5351770268499125
11.5,2.450481710135398,2.361893820357877,2.5342675071730794
11.6,2.450587512137769,2.362769130680184,2.533151855097858
11.7,2.4506531161449394,2.3638592727071845,2.5322005286304377
11.8,2.4506785221569096,2.3651001159154914,2.531305967511057
11.9,2.4506637301736793,2.3661924066974764,2.5303507853976313
12,2.4506087401952485,2.367282294369926,2.5293636860271613
12.1,2.4505135522216177,2.368212871895558,2.5282524916494564
12.2,2.4503781662527855,2.368954534133204,2.527056193686427
12.3,2.450202582288754,2.3695757031969746,2.5258253631262946
12.4,2.449986800329521,2.370289157103818,2.524554134813699
12.5,2.4497308203750885,2.37080365398615,2.523593723038392
12.6,2.449434642425455,2.3713346772678907,2.5225834361832895
12.7,2.449098266480621,2.3718234548692014,2.5213400845771567
12.8,2.448721692540587,2.37227543617946,2.5201604696526756
12.9,2.448304920605352,2.372988871576279,2.5189018830699492
13,2.4478479506749173,2.3736653815436766,2.5176826497239286
13.1,2.4473507827492815,2.373999394131612,2.516518292757324
13.2,2.446813416828445,2.3745153026468926,2.5151468601902502
13.3,2.4462358529124097,2.3749984595851847,2.5139224067469557
13.4,2.4456180910011724,2.3754468341142054,2.5125275901310595
13.5,2.444960131094735,2.37584938661771,2.511238022746355
13.6,2.4442619731930972,2.375903660000538,2.509895959611969
13.7,2.443523617296259,2.375747610001472,2.5085007834270896
13.8,2.442745063404221,2.3756081212361266,2.506922888048296
13.9,2.4419263115169816,2.375698471709632,2.5052144653972297
14,2.441067361634542,2.3755561388163384,2.5037623437082077
14.1,2.4401682137569027,2.375265057320969,2.5022620657423174
14.2,2.4392288678840615,2.3751680498860246,2.500495323791016
14.3,2.438249324016022,2.375051179491807,2.498847760889186
14.4,2.4372295821527805,2.3750106513545726,2.4971319584979144
14.5,2.4361696422943386,2.375027888626967,2.495397616646522
14.6,2.4350695044406967,2.3743914099526995,2.4937068280728267
14.7,2.433929168591854,2.3740645511023244,2.492004458052344
14.8,2.4327486347478118,2.3739313521093686,2.490331171106231
14.9,2.431527902908568,2.3736605412577525,2.488532670628217
15,2.430266973074124,2.3733445533935553,2.4864000423314736
15.1,2.4289658452444804,2.3729881428821766,2.4843521055115314
15.2,2.427624519419635,2.3723085939669346,2.482043021330157
15.3,2.4262429955995906,2.37131474969386,2.4800382136283496
15.4,2.424821273784345,2.370318854815983,2.4779688166836786
15.5,2.4233593539738987,2.36948892873716,2.476071022529668
15.6,2.421857236168252,2.368687856533363,2.4738910410223482
15.7,2.4203149203674053,2.3678370010679393,2.4716898819806605
15.8,2.4187324065713587,2.3668206412322284,2.4694161512176445
15.9,2.4171096947801107,2.3657228308606504,2.4671616486765617
16,2.4154467849936627,2.3646115476938885,2.4648914939284765
16.1,2.4137436772120138,2.36353950706061,2.4625889314440275
16.2,2.4120003714351648,2.3624413831753666,2.460297617924089
16.3,2.410216867663116,2.3611631118702068,2.4579517619674895
16.4,2.408393165895866,2.3599875215298636,2.4553011944388894
16.5,2.4065292661334157,2.358505125042454,2.452606661378469
16.6,2.404625168375765,2.356992802459226,2.4501207289087557
16.7,2.4026808726229136,2.3555499367987918,2.4475652650940436
16.8,2.4006963788748625,2.3541133431781134,2.444816792415545
16.9,2.3986716871316105,2.3528809126902717,2.4422939593541155
17,2.396606797393158,2.3517237867009952,2.4395304107841893
17.1,2.394501709659505,2.350262233442458,2.436659214463022
17.2,2.3923564239306514,2.348758520320751,2.4337958497108154
17.3,2.3901709402065983,2.3469042192359657,2.4312656075887613
17.4,2.3879452584873437,2.3452016517471055,2.428682806375577
17.5,2.385679378772889,2.3434308903172596,2.4258305616897786
17.6,2.383373301063234,2.3414813004487294,2.422993449855906
17.7,2.381027025358378,2.3394057352887865,2.420138571083482
17.8,2.3786405516583233,2.3376552357343066,2.4171387816498955
17.9,2.3762138799630663,2.335807312712329,2.414271460987213
18,2.3737470102726097,2.3337827492436776,2.411168055562527
18.1,2.3712399425869526,2.332037775043135,2.408136129759395
18.2,2.3686926769060945,2.3299385164638733,2.405414741495057
18.3,2.3661052132300373,2.3278060406495884,2.4024884336466075
18.4,2.3634775515587787,2.325951311205017,2.399480805173031
18.5,2.360809691892319,2.323666337536865,2.396476685859128
18.6,2.35810163423066,2.321463639233098,2.393251254020738
18.7,2.3553533785738,2.319318423358127,2.390330657995559
18.8,2.35256492492174,2.3166145055866822,2.3872733386428373
18.9,2.3497362732744795,2.3138251595996526,2.384293358021271
19,2.346867423632018,2.3113861183131537,2.3810569374391966
19.1,2.3439583759943563,2.308573054850164,2.3780339942924362
19.2,2.3410091303614946,2.306011187451049,2.374693279612298
19.3,2.338019686733433,2.303412758290306,2.3713007791280205
19.4,2.3349900451101693,2.300815704408415,2.367943400421555
19.5,2.331920205491706,2.2977928209908263,2.3645082209068686
19.6,2.3288101678780424,2.2946734823726453,2.360997135492876
19.7,2.3256599322691778,2.2919944012421194,2.3573818194314704
19.8,2.3224694986651135,2.2892499564425504,2.35368289256028
19.9,2.319238867065849,2.286368009008938,2.35042052343957
20,2.315968037471383,2.2831606838472487,2.346873042927572
20.1,2.3126570098817174,2.28028934753384,2.3434297913511473
20.2,2.3093057842968507,2.2769279076801396,2.3398227498861948
20.3,2.3059143607167845,2.273824107672918,2.3363592808851505
20.4,2.3024827391415172,2.270599053196195,2.3326158655565057
20.5,2.2990109195710495,2.2671272101427937,2.3291923264007535
20.6,2.2954989020053813,2.263937567936668,2.3257164338374707
20.7,2.291946686444513,2.26060304467707,2.3223120059906193
20.8,2.2883542728884443,2.2569773938764497,2.3189379868725917
20.9,2.2847216613371746,2.253610258481347,2.315493865209352
21,2.281048851790705,2.2500215467823073,2.312011129987182
21.1,2.277335844249035,2.2465130833121707,2.3082818881338936
21.2,2.2735826387121643,2.242692986929987,2.3045610631451887
21.3,2.2697892351800935,2.2385967438447354,2.3008201460190123
21.4,2.2659556336528217,2.234816532192319,2.296877657705614
21.5,2.26208183413035,2.230884934142206,2.293061212166732
21.6,2.258167836612677,2.226556661337727,2.2890184070376076
21.7,2.2542136410998044,2.2224493631285216,2.2851846125478747
21.8,2.2502192475917315,2.2183892027931673,2.281430069817855
21.9,2.2461846560884577,2.2142337854663228,2.2776254826705173
22,2.2421098665899835,2.2100431366476956,2.273794990897509
22.1,2.237994879096309,2.2059073466289014,2.2698222615365866
22.2,2.233839693607434,2.2013340560062336,2.2656245701778808
22.3,2.2296443101233585,2.196696285778615,2.261507862018048
22.4,2.2254087286440827,2.1922611490275585,2.2573495935256807
22.5,2.221132949169607,2.188001515052151,2.2533905480672614
22.6,2.21681697169993,2.183541985458982,2.249196790851993
22.7,2.212460796235052,2.179204524342234,2.245137789249342
22.8,2.2080644227749753,2.1746739294498476,2.2411394669603992
22.9,2.203627851319697,2.1698682314655766,2.2370580621596816
23,2.1991510818692186,2.165284807315163,2.233004722026426
23.1,2.1946341144235397,2.1601325326427947,2.2288762822796357
23.2,2.1900769489826604,2.155159324916891,2.2246346094518974
23.3,2.185479585546581,2.1503476555053336,2.2202626225377013
23.4,2.1808420241153006,2.145597648171446,2.2159502353753178
23.5,2.1761642646888197,2.1407497279313343,2.211468109768381
23.6,2.171446307267139,2.1356337494847586,2.206787642882951
23.7,2.1666881518502574,2.1305288038172074,2.2022083465188236
23.8,2.1618897984381755,2.125470760027812,2.198003967291434
23.9,2.157051247030893,2.120288533642812,2.1937351495918334
24,2.1521724976284102,2.1151733952071674,2.189526894035538
24.1,2.1472535502307273,2.10971383169818,2.185139042093655
24.2,2.1422944048378434,2.104444872276531,2.1804783483386654
24.3,2.1372950614497594,2.09914910533794,2.176183796288125
24.4,2.132255520066475,2.0937987731304113,2.1718085422280944
24.5,2.12717578068799,2.0883684640024858,2.1669578348236946
24.6,2.1220558433143046,2.0823901171858092,2.162295149520076
24.7,2.1168957079454187,2.0765843218637867,2.157464889468797
24.8,2.1116953745813327,2.0709026240283084,2.152926989463378
24.9,2.1064548432220462,2.064998199102937,2.148428693078567
25,2.101174113867559,2.059031941651787,2.14368666770769
25.1,2.0958531865178713,2.05301844519457,2.139076807559691
25.2,2.0904920611729834,2.0469284642595724,2.1343632722067483
25.3,2.085090737832895,2.0408510509171958,2.129745496224352
25.4,2.0796492164976064,2.034829780188014,2.124927021600901
25.5,2.074167497167117,2.0287159662620686,2.1202011906196274
25.6,2.068645579841427,2.0223760918365503,2.1153443877235207
25.7,2.0630834645205365,2.0158072478969777,2.1104338023619817
25.8,2.0574811512044464,2.0095889858638905,2.1056910093728884
25.9,2.0518386398931554,2.003561022117733,2.100599557961145
26,2.046155930586664,1.9973149186491401,2.0954600777588817
26.1,2.040433023284972,1.9910533434786999,2.0902384248639887
26.2,2.0346699179880794,1.9847576578509143,2.0852322982766527
26.3,2.028866614695987,1.9779989870409156,2.0800816929684665
26.4,2.023023113408694,1.9712718239270322,2.0747811100769553
26.5,2.0171394141262002,1.9646718671305017,2.0694784307649243
26.6,2.011215516848506,1.9579518286272397,2.064116381607092
26.7,2.0052514215756116,1.9512930458326296,2.058711753865688
26.8,1.9992471283075166,1.9447692832459702,2.0532663686633197
26.9,1.9932026370442215,1.9380540410609486,2.0480327169533856
27,1.9871179477857255,1.9313012168277406,2.042703000723512
27.1,1.9809930605320292,1.9245201774245189,2.037134371493924
27.2,1.9748279752831328,1.9175148826611599,2.0315097514750944
27.3,1.9686226920390357,1.9104201503503553,2.0259762586869003
27.4,1.9623772107997381,1.903431316111432,2.0203988782010134
27.5,1.95609153156524,1.8961996637044827,2.0147765813261835
27.6,1.9497656543355415,1.8891650250189864,2.00910851944414
27.7,1.9433995791106429,1.8821139667017448,2.0032940321965103
27.8,1.9369933058905442,1.8749057446123425,1.997434604247243
27.9,1.9305468346752441,1.8678426871136025,1.991554720477426
28,1.924060165464744,1.860882786075651,1.9857689742115658
28.1,1.9175332982590432,1.853761796985971,1.9799171221517815
28.2,1.9109662330581423,1.846407881486358,1.974230385688529
28.3,1.9043589698620413,1.8390331299179314,1.9684020443463357
28.4,1.8977115086707395,1.8316282906947503,1.9624983303588994
28.5,1.8910238494842369,1.824083709716777,1.956601557350798
28.6,1.8842959923025342,1.8165939137047327,1.9507140344871128
28.7,1.8775279371256306,1.80909481059297,1.944831846640557
28.8,1.8707196839535276,1.8015861692178254,1.9388680696777087
28.9,1.8638712327862237,1.7937256532016137,1.9327924808402956
29,1.856982583623719,1.7858187796157625,1.9267154332376717
29.1,1.850053736466014,1.7780032125034375,1.920656412576502
29.2,1.8430846913131087,1.7700719596098178,1.9143746108949409
29.3,1.8360754481650035,1.7622733956968988,1.9079810832814112
29.4,1.8290260070216968,1.7544087228109888,1.9016277639603063
29.5,1.8219363678831904,1.746459527875546,1.8954964990843668
29.6,1.814806530749483,1.7383765957719384,1.8892969693362858
29.7,1.8076364956205753,1.730215824401737,1.8829500046607706
29.8,1.800426262496468,1.722117074249267,1.8766169304191953
29.9,1.7931758313771595,1.713972076299716,1.8702013278775493
30,1.7858852022626508,1.7055807545079453,1.8638163774852508
30.1,1.7785543751529413,1.697445241207331,1.8575447206246127
30.2,1.7711833500480316,1.6890787893753112,1.8509094882079136
30.3,1.7637721269479218,1.6808274795140548,1.8442721784426173
30.4,1.7563207058526111,1.672444330744437,1.8376900716074482
30.5,1.7488290867621004,1.6638916401368382,1.8312999112946573
30.6,1.7412972696763886,1.655369129248362,1.8249131351233334
30.7,1.7337252545954769,1.646763834343779,1.8183942572480298
30.8,1.726113041519365,1.6381235053052463,1.8120073392628369
30.9,1.7184606304480523,1.6295926324406338,1.805662560535898
31,1.710768021381539,1.6208604319014746,1.7991139009064119
31.1,1.7030352143198253,1.6120336278724419,1.7926503044030566
31.2,1.6952622092629113,1.6032053753266617,1.786069203815544
31.3,1.6874490062107972,1.59437314432288,1.7793985453006802
31.4,1.6795956051634824,1.5856465007197036,1.7725893363759573
31.5,1.671702006120967,1.5765236206808544,1.7658776349882839
31.6,1.663768209083251,1.5673989673725537,1.758969338407311
31.7,1.6557942140503348,1.5583003418121644,1.7519155901895926
31.8,1.6477800210222187,1.5490413249401165,1.7448604665570815
31.9,1.6397256299989018,1.539752677304615,1.7377927855484585
32,1.631631040980384,1.5303797438950444,1.7308417828173575
32.1,1.6234962539666657,1.521001585290255,1.7239755965047157
32.2,1.6153212689577476,1.5112714820526887,1.716944390544954
32.3,1.6071060859536295,1.5014968546504317,1.710003539146509
32.4,1.5988507049543101,1.491669102300944,1.7030363639333304
32.5,1.5905551259597903,1.4822389565842662,1.6960846435504893
32.6,1.58221934897007,1.4725891881545496,1.6890226442359333
32.7,1.5738433739851496,1.4632089750163062,1.6821203334070667
32.8,1.5654272010050292,1.4535411619194294,1.6751622327780116
32.9,1.5569708300297074,1.4434891173598026,1.6681742517503233
33,1.5484742610591857,1.433659491839165,1.6611494289516444
