temp,mean,conf_lower,conf_upper
0,0.9095639452585267,0.7937493568745482,1.0161325195588338
0.1,0.9106871789328965,0.7954945654472333,1.0167535073075116
0.2,0.911801683113999,0.797226977960616,1.0173451524899468
0.3,0.9129074578018342,0.7989151022575207,1.0179313379938204
0.4,0.9140045029964019,0.8004292713564767,1.0185176689876285
0.5,0.9150928186977023,0.8019325737898761,1.0191007778121755
0.6,0.9161724049057351,0.8034265930958234,1.019678235596365
0.7,0.9172432616205008,0.8049648587726645,1.0202495478482911
0.8,0.9183053888419992,0.8065998310353699,1.0208143248388748
0.9,0.9193587865702302,0.808225010129187,1.0213734739963758
1,0.9204034548051936,0.8098377931081514,1.0219269953207946
1.1,0.9214393935468896,0.8114405041294751,1.0225400659284176
1.2,0.9224666027953186,0.8130198191497002,1.023196128307239
1.3,0.9234850825504801,0.8144301856248631,1.0238457505755467
1.4,0.9244948328123741,0.8158293690948395,1.0244889327333404
1.5,0.9254958535810007,0.8173121520085989,1.025145588917392
1.6,0.92648814485636,0.8188675949438012,1.0257971676780815
1.7,0.9274717066384519,0.8204102234140788,1.0264037746274688
1.8,0.9284465389272765,0.8219400374194317,1.0270031175719958
1.9,0.9294126417228337,0.8234570369598596,1.0275354236931609
2,0.9303700150251235,0.8249612220353628,1.0280240308206812
2.1,0.9313186588341458,0.8264484331591055,1.0285043203873823
2.2,0.9322585731499011,0.827857345918688,1.0289615097341434
2.3,0.9331897579723887,0.8292546440020876,1.0294265054023906
2.4,0.9341122133016091,0.8306403274093042,1.029909173243778
2.5,0.9350259391375619,0.8320143961403377,1.0303811909017953
2.6,0.9359309354802474,0.8333768501951884,1.0308381122774284
2.7,0.9368272023296658,0.834727689573856,1.0312896302349501
2.8,0.9377147396858165,0.8360669142763408,1.0317357447743603
2.9,0.9385935475487002,0.8374030537339812,1.0322397641830465
3,0.9394636259183162,0.8387479917019915,1.0326883234326716
3.1,0.9403249747946649,0.8400808136933133,1.033130173529016
3.2,0.9411775941777463,0.8414015197079467,1.033569228550334
3.3,0.9420214840675603,0.8426203452003214,1.034008594396798
3.4,0.9428566444641069,0.8437977112156967,1.0345288789193767
3.5,0.9436830753673862,0.8449646334035243,1.035042612885064
3.6,0.9445007767773979,0.8461155264848512,1.035549796293861
3.7,0.9453097486941426,0.8472562546626115,1.0360431215543782
3.8,0.9461099911176196,0.8483859093877415,1.0365265118302942
3.9,0.9469015040478295,0.849504490660242,1.0368900589589825
4,0.9476842874847717,0.8506124150265746,1.0372567784691715
4.1,0.9484583414284469,0.8517152132189676,1.0376707292858045
4.2,0.9492236658788544,0.8528068775268274,1.038003813098304
4.3,0.9499802608359948,0.853945472868179,1.0384631189180562
4.4,0.9507281262998677,0.8550934894584119,1.0389118588408786
4.5,0.9514672622704732,0.8561508667918705,1.0393536509270649
4.6,0.9521976687478113,0.8571731626840731,1.0397884951766159
4.7,0.9529193457318823,0.8582909742772609,1.0401948263865453
4.8,0.9536322932226855,0.8594406100073186,1.040545010556883
4.9,0.9543365112202218,0.860538050249338,1.0408889610025516
5,0.9550319997244903,0.8616444986828431,1.0412269521583761
5.1,0.9557187587354916,0.8626338749434987,1.041570575880694
5.2,0.9563967882532256,0.8636110277481266,1.0420247190224425
5.3,0.957066088277692,0.8645785536346711,1.0423296883355215
5.4,0.9577266588088913,0.8655424803961078,1.0427339690018311
5.5,0.9583784998468232,0.8664948498746385,1.0431501650796333
5.6,0.9590216113914876,0.8673807142827366,1.0435541123799903
5.7,0.9596559934428848,0.8681734525043581,1.0439674935682204
5.8,0.9602816460010144,0.8691643303612253,1.0443667023854193
5.9,0.9608985690658769,0.8700725230663153,1.0447533688533972
6,0.9615067626374716,0.870837225855015,1.0451317027736389
6.1,0.9637532299862114,0.8740739073295449,1.046359025161767
6.2,0.9659822383484165,0.8772977278981435,1.0475675267053557
6.3,0.9681937877240867,0.8805132516341982,1.0487683625822963
6.4,0.9703878781132222,0.883679955016388,1.0499573252108505
6.5,0.972564509515823,0.8868510901021254,1.0510735559611475
6.6,0.974723681931889,0.8900892543079613,1.0522606169433204
6.7,0.9768653953614204,0.8934121732837479,1.0534555419437819
6.8,0.9789896498044168,0.896524091606608,1.0547180932479643
6.9,0.9810964452608786,0.8997292179441874,1.055931269267917
7,0.9831857817308056,0.902870323517293,1.0570993080090039
7.1,0.9852576592141978,0.9059032479777713,1.0582828859462539
7.2,0.9873120777110556,0.9089061783051957,1.059519802602032
7.3,0.9893490372213782,0.9118837156528876,1.0608158708621414
7.4,0.9913685377451665,0.9149495884813074,1.0619692973805228
7.5,0.9933705792824198,0.9178334989164649,1.0630426676041986
7.6,0.9953551618331383,0.9206762019032033,1.0642492917910185
7.7,0.9973222853973223,0.9235317210006277,1.0653366331992062
7.8,0.9992719499749714,0.9262573487806611,1.0666154547741113
7.9,1.0012041555660858,0.9289665910346456,1.0677161491817801
8,1.0031189021706652,0.9317344688891189,1.069005393809216
8.1,1.00501618978871,0.9345575153136005,1.0702488446156528
8.2,1.0068960184202203,0.9372578749613766,1.0714251042644745
8.3,1.0087583880651956,0.9399025971323987,1.072648779011621
8.4,1.0106032987236364,0.9425700433510837,1.073786627938747
8.5,1.0124307503955423,0.9450596735747574,1.0749605384063754
8.6,1.0142407430809135,0.9476208161795042,1.0761115061418995
8.7,1.01603327677975,0.9501980521541387,1.077258275635577
8.8,1.0178083514920515,0.9527540510804041,1.0784107776331684
8.9,1.0195659672178186,0.9550830346864831,1.079562784473965
9,1.021306123957051,0.9574317543070194,1.0806416254422055
9.1,1.0230288217097483,0.9597901752782081,1.0817122646909232
9.2,1.024734060475911,0.9622029003277722,1.0828107176930548
9.3,1.026421840255539,0.9646226644295768,1.083868656338887
9.4,1.0280921610486322,0.9669128534471476,1.0849023576919787
9.5,1.0297450228551905,0.9691638271510301,1.0860029266950273
9.6,1.0313804256752144,0.9713120654122465,1.0869106012805188
9.7,1.0329983695087033,0.9736094693550131,1.0878682798437378
9.8,1.0345988543556577,0.9757719130273403,1.0888409857109265
9.9,1.0361818802160772,0.9779653167252652,1.089730425921337
10,1.0377474470899621,0.9801447465406886,1.0907111844109296
10.1,1.039295554977312,0.9821763638081302,1.0916582704998288
10.2,1.0408262038781273,0.9841456837244089,1.0925728497437075
10.3,1.042339393792408,0.9861639927587165,1.0935049902686642
10.4,1.0438351247201536,0.988243661635457,1.0945131739355156
10.5,1.0453133966613648,0.9901968133339953,1.0955280661040663
10.6,1.046774209616041,0.9921150341433456,1.0964864109412336
10.7,1.0482175635841828,0.9940844627832557,1.0974235216515011
10.8,1.0496434585657894,0.9960013774284999,1.0982812569539666
10.9,1.0510518945608616,0.9978401346814361,1.0990712178163555
11,1.052442871569399,0.9997956141381514,1.0998433127277623
11.1,1.0538163895914014,1.0017084925987367,1.1006627874445285
11.2,1.0551724486268694,1.0036434317141945,1.1015669502845435
11.3,1.0565110486758027,1.0054171910091303,1.1024037805681903
11.4,1.057832189738201,1.0071790156378169,1.1031245614864096
11.5,1.0591358718140647,1.0089707165561017,1.1040039350106956
11.6,1.0604220949033936,1.0107633291923264,1.1048345004204188
11.7,1.0616908590061878,1.012564467146667,1.1056523702342433
11.8,1.0629421641224472,1.014333060651132,1.1065136643099893
11.9,1.0641760102521718,1.0160791603084485,1.107228149485752
12,1.0653923973953618,1.0178776029724124,1.1079808873706236
12.1,1.066591325552017,1.0196257950491872,1.1087575877194826
12.2,1.0677727947221374,1.021427068572374,1.1094401573939363
12.3,1.068936804905723,1.023121853006356,1.1101090553872557
12.4,1.070083356102774,1.0246335529985138,1.11083696753626
12.5,1.0712124483132903,1.0260912892808824,1.1114806233867922
12.6,1.0723240815372717,1.0275270709473692,1.1121365898418523
12.7,1.0734182557747185,1.0290095969017885,1.1127784784641335
12.8,1.0744949710256306,1.0305355590070513,1.1134301634796673
12.9,1.075554227290008,1.0320616720844171,1.1140967590931352
13,1.0765960245678503,1.0335780642118373,1.1147176749911294
13.1,1.0776203628591579,1.0350967129731619,1.1153208198977569
13.2,1.0786272421639311,1.0366400533519387,1.116055404020556
13.3,1.0796166624821695,1.037943214413353,1.1167671764398792
13.4,1.080588623813873,1.039232326181388,1.1174476517382859
13.5,1.0815431261590418,1.0406273023480603,1.1181440530933875
13.6,1.0824801695176758,1.0421298912948709,1.1187893916089804
13.7,1.083399753889775,1.0436133795059392,1.1194138976478598
13.8,1.0843018792753396,1.0450786522948556,1.1199629994202205
13.9,1.0851865456743695,1.0465242859763086,1.1204925218564643
14,1.0860537530868646,1.0479502805502974,1.120922454670771
14.1,1.086903501512825,1.0493524765299862,1.121329643368571
14.2,1.0877357909522507,1.0506695495029756,1.1217047914285505
14.3,1.0885506214051412,1.0519482291161044,1.1221147245206207
14.4,1.0893479928714978,1.053142184001946,1.1225316368181444
14.5,1.090127905351319,1.0543197504351105,1.122911868400497
14.6,1.0908903588446055,1.0555327153784306,1.1232592340006926
14.7,1.0916353533513576,1.0567273746671602,1.1235898819012435
14.8,1.0923628888715746,1.0578338646714234,1.1239038121021498
14.9,1.0930729654052571,1.0589950534498689,1.1242627550865376
15,1.093765582952405,1.0601283846450151,1.1245451771104686
15.1,1.0944407415130175,1.0612836118270808,1.1247563945464853
15.2,1.095098441087096,1.062432161291,1.125042637935604
15.3,1.0957386816746393,1.0634541837015508,1.1252505372927115
15.4,1.096361463275648,1.0644554952929253,1.1256004545715823
15.5,1.096966785890122,1.0653986380741705,1.1259607929162554
15.6,1.0975546495180613,1.0662767713602601,1.1262486535072127
15.7,1.0981250541594658,1.067141597454056,1.126511269684202
15.8,1.0986779998143352,1.067989709828279,1.12674814156868
15.9,1.0992134864826704,1.068880797899594,1.126853869695358
16,1.0997315141644708,1.0697707308538258,1.1269514695929645
16.1,1.100232082859736,1.0706483369042312,1.1270850001864425
16.2,1.100715192568467,1.0715076083402164,1.1271357913787559
16.3,1.101180843290663,1.0724073371520166,1.1273208829522643
16.4,1.1016290350263243,1.073310070525482,1.1274593529165262
16.5,1.102059767775451,1.0741149815053888,1.1275910969854284
16.6,1.1024730415380424,1.074819485657665,1.127715592767458
16.7,1.1028688563140996,1.0755974229585834,1.1278321208054138
16.8,1.1032472121036219,1.0763892780269746,1.1278484258783434
16.9,1.1036081089066094,1.077103881091611,1.127843281804025
17,1.1039515467230623,1.0778191792088465,1.1278180643802458
17.1,1.1042775255529804,1.0784090920143465,1.1277853811845393
17.2,1.1045860453963638,1.0789784682249324,1.1278513350966115
17.3,1.1048771062532123,1.0795299043785485,1.1277551563995885
17.4,1.1051507081235261,1.0801652244693938,1.127751537916827
17.5,1.1054068510073054,1.0808020927277457,1.1277558756092718
17.6,1.1056455349045495,1.0812957569660355,1.1277695785343025
17.7,1.1058667598152594,1.081699326285817,1.1277352519508295
17.8,1.106070525739434,1.082320935180673,1.127683074418869
17.9,1.1062568326770745,1.082856358232338,1.127609243406197
18,1.1064256806281798,1.0832427775270022,1.1275107193674767
18.1,1.1065770695927504,1.0836382455181832,1.1273924898356693
18.2,1.1067109995707864,1.0839943386011806,1.1272090091504343
18.3,1.1068274705622876,1.0844588475370465,1.1270176005467638
18.4,1.1069264825672538,1.08485666493223,1.1268061798050255
18.5,1.1070080355856857,1.0852377073007136,1.1265184788194555
18.6,1.1070721296175825,1.0856756961383967,1.1263144460836747
18.7,1.107118764662945,1.0862310819255865,1.1261012970001083
18.8,1.1071479407217724,1.0865746720772114,1.1259944823815817
18.9,1.107159657794065,1.0870182678923803,1.1258281427142798
19,1.107153915879823,1.0874046405919002,1.1254933928898687
19.1,1.1071307149790461,1.0877158025683924,1.1252412571347006
19.2,1.1070900550917349,1.0880192802333593,1.124958207292361
19.3,1.1070319362178884,1.0882106395920217,1.124708801733286
19.4,1.1069563583575075,1.0884972696743183,1.124424917565125
19.5,1.1068633215105919,1.0885843414042489,1.124116287009778
19.6,1.1067528256771413,1.0885942436260478,1.1238481462423433
19.7,1.1066248708571562,1.0886552499339335,1.1234432028115933
19.8,1.1064794570506362,1.0886822783599828,1.1232249143031865
19.9,1.1063165842575815,1.0886786939056283,1.1228442239209553
20,1.106136252477992,1.0886203298538248,1.1225834479256904
20.1,1.1059384617118675,1.0885907396345869,1.1223030469283928
20.2,1.105723211959209,1.0885823140312483,1.1219565250483963
20.3,1.105490503220015,1.0884827682610534,1.1216501018883127
20.4,1.1052403354942868,1.0884292416093762,1.121233067325866
20.5,1.1049727087820236,1.0882945867455018,1.1208956181828686
20.6,1.1046876230832257,1.088226074962832,1.1204837635103049
20.7,1.1043850783978932,1.0880185121503987,1.120105715474967
20.8,1.1040650747260257,1.0877921602005058,1.1197147380372738
20.9,1.1037276120676236,1.0873949380712582,1.1193797204605582
21,1.1033726904226868,1.0870667115295598,1.1188803966573087
21.1,1.103000309791215,1.0868094891688758,1.118426647600856
21.2,1.102610470173209,1.0866327862954046,1.11795048227094
21.3,1.1022031715686675,1.086360870244261,1.1174502151851273
21.4,1.1017784139775921,1.0860648821292438,1.1169847460585807
21.5,1.1013361973999813,1.085583888338526,1.1165864121681301
21.6,1.1008765218358358,1.085006515039125,1.11594477836487
21.7,1.1003993872851558,1.0845916202894914,1.1153841297498366
21.8,1.0999047937479411,1.0841916662576494,1.1148367182435788
21.9,1.0993927412241917,1.083582670601109,1.114243434460421
22,1.0988632297139074,1.082949142696666,1.1137376920104614
22.1,1.0983162592170883,1.08227190397556,1.1131648672163394
22.2,1.0977518297337348,1.0816845630294305,1.1125526039853604
22.3,1.097169941263846,1.0812036473855222,1.11194336189895
22.4,1.0965705938074226,1.0805618522608365,1.1112597671286677
22.5,1.095953787364465,1.0798306622333187,1.1107380556299253
22.6,1.095319521934972,1.079049010156341,1.1100866834166712
22.7,1.0946677975189445,1.0784482341866233,1.1094691114035893
22.8,1.0939986141163822,1.077666303898909,1.1088005295392076
22.9,1.0933119717272852,1.0768933076434832,1.1080590535370587
23,1.092607870351654,1.0761490534278262,1.1073167323070603
23.1,1.091886309989487,1.0752939906359182,1.1065757981401647
23.2,1.091147290640786,1.0743975410289357,1.1059420816426626
23.3,1.0903908123055501,1.073507313762228,1.1053483026748911
23.4,1.0896168749837793,1.0726405906008076,1.104689104652065
23.5,1.088825478675474,1.0717866638835405,1.1041672202753454
23.6,1.0880166233806339,1.0708776845714936,1.1034552349433868
23.7,1.087190309099259,1.070072600634293,1.1027966230798447
23.8,1.0863465358313493,1.0690189696406005,1.1021615493882657
23.9,1.0854853035769048,1.0679324863742596,1.1013414850989782
24,1.084606612335926,1.066861015674118,1.1006212173457155
24.1,1.083710462108412,1.0657319010134048,1.0997992975795037
24.2,1.0827968528943632,1.0645594821766635,1.099099890286582
24.3,1.0818657846937798,1.0634699052347378,1.098262112926001
24.4,1.0809172575066617,1.0622848780718965,1.09741356653736
24.5,1.079951271333009,1.061122633475224,1.0966502211899425
24.6,1.0789678261728213,1.0598935345012976,1.0958471095391658
24.7,1.077966922026099,1.0586001118124917,1.0950849267936713
24.8,1.076948558892842,1.057258800641106,1.094336210487053
24.9,1.0759127367730503,1.0559652866069666,1.0935512264310987
25,1.074859455666724,1.054574049095006,1.092762217326041
25.1,1.0737887155738624,1.053156446269212,1.0918454349576658
25.2,1.0727005164944663,1.0518069632420102,1.0910101261351404
25.3,1.0715948584285355,1.0504080662341464,1.0901308899444873
25.4,1.07047174137607,1.0489921567561737,1.0892784635964075
25.5,1.0693311653370698,1.0475624219680717,1.0885192951550002
25.6,1.0681731303115347,1.0462274830888496,1.0875612529763556
25.7,1.066997636299465,1.044799043671139,1.0866199109368853
25.8,1.0658046833008603,1.0433835464951802,1.0856676968792205
25.9,1.064594271315721,1.042140267805373,1.0848440162561706
26,1.0633664003440475,1.0406732723385903,1.0838892728968357
26.1,1.0621210703858386,1.0391886797283634,1.0829554117829496
26.2,1.0608582814410952,1.037668864814999,1.0820133240801442
26.3,1.0595780335098168,1.0360152582791224,1.081094676810322
26.4,1.058280326592004,1.034395987222501,1.080157666678962
26.5,1.0569651606876564,1.0327576810853745,1.0791887350075275
26.6,1.0556325357967737,1.031059237529643,1.0781757563777337
26.7,1.0542824519193568,1.0293974562540693,1.0771068557987136
26.8,1.0529149090554049,1.027793074576735,1.0760725472185515
26.9,1.0515299072049182,1.0262239763422298,1.0750265042660494
27,1.0501274463678967,1.0244059751972583,1.073891965060053
27.1,1.0487075265443404,1.0225545797061497,1.0726431884237488
27.2,1.0472701477342499,1.0207032209074143,1.0716288365168962
27.3,1.0458153099376242,1.0188071198600221,1.070523342592193
27.4,1.0443430131544635,1.0170398808645273,1.0694654832010997
27.5,1.0428532573847686,1.015260003274857,1.0683198195114363
27.6,1.0413460426285388,1.0134266971785382,1.0671034240339585
27.7,1.0398213688857743,1.0115793208183674,1.0660315738849384
27.8,1.0382792361564748,1.0096871729638224,1.0648408731857835
27.9,1.0367196444406408,1.007838127545755,1.063577153078786
28,1.035142593738272,1.0060460178235244,1.0622956967936132
28.1,1.0335480840493683,1.0042068537603717,1.0609965043302654
28.2,1.0319361153739302,1.002225393518084,1.0597569250713765
28.3,1.030306687711957,1.0002026433409696,1.0585373535456084
28.4,1.0286598010634491,0.9981610872711333,1.0572921684490384
28.5,1.0269954554284069,0.9961089657131081,1.0560417969655698
28.6,1.0253136508068292,0.9941069568062235,1.0547405443854578
28.7,1.0236143871987173,0.9920747210327006,1.0535083590013183
28.8,1.0218976646040707,0.9899170410183766,1.0521658682220252
28.9,1.0201634830228892,0.987721235672854,1.0507966272375897
29,1.0184118424551731,0.9854415953425466,1.0494952380657827
29.1,1.016642742900922,0.9831796573331069,1.0481793327225517
29.2,1.0148561843601362,0.9808715009358944,1.0468280375496173
29.3,1.0130521668328158,0.9785634178933538,1.0454791774735448
29.4,1.0112306903189605,0.9762991238107821,1.0441181378678956
29.5,1.0093917548185707,0.9740453449347843,1.0427424278656219
29.6,1.0075353603316457,0.9717254729851407,1.0413822874327516
29.7,1.0056615068581864,0.9694783666644823,1.0399441802449951
29.8,1.0037701943981923,0.9672400258507847,1.0384946374309125
29.9,1.0018614229516634,0.9649914707240573,1.036977227364278
30,0.9999351925185999,0.9626976149398055,1.0354783603761868
30.1,0.9979915030990012,0.9603076658578255,1.033966134368748
30.2,0.9960303546928682,0.9578720280293935,1.0324032077538354
30.3,0.9940517473002004,0.9555288895732152,1.030858526436848
30.4,0.9920556809209975,0.9531832166691105,1.0292951557258114
30.5,0.9900421555552603,0.9508150577844745,1.0277170637936717
30.6,0.9880111712029881,0.9484128708197206,1.0261382946772282
30.7,0.9859627278641814,0.9460193806053043,1.0245046071386101
30.8,0.9838968255388398,0.9435798269762924,1.0228680875152487
30.9,0.9818134642269633,0.9411011869927864,1.0212076043795209
31,0.9797126439285524,0.9386052886858657,1.0194301717526357
31.1,0.9775943646436064,0.9361183047963051,1.0177539890121858
31.2,0.9754586263721259,0.933634227212499,1.0159705109742312
31.3,0.9733054291141106,0.9310395625268746,1.0141232101000268
31.4,0.9711347728695605,0.928427817165985,1.012324316375974
31.5,0.9689466576384758,0.9257744599278208,1.0105626727654815
31.6,0.9667410834208561,0.9230611247117735,1.0086966155911474
31.7,0.9645180502167018,0.9204093085233404,1.0069079846726146
31.8,0.962277558026013,0.9178489480806162,1.0051407975244206
31.9,0.9600196068487891,0.9152509021796283,1.0032793438904224
32,0.9577441966850306,0.9125159829767933,1.0014031245113617
32.1,0.9554513275347372,0.909731210932607,0.999547008191493
32.2,0.9531409993979094,0.9070668321771167,0.9976798464002997
32.3,0.9508132122745467,0.904273817935765,0.995793252484453
32.4,0.948467966164649,0.9014709249208358,0.9938697572400217
32.5,0.9461052610682168,0.8987421027271274,0.9919895828098024
32.6,0.9437250969852499,0.8959814023824061,0.9901720635038807
32.7,0.9413274739157482,0.8929324417447946,0.9883819066016237
