temp,mean,conf_lower,conf_upper
0,0.019238176421539886,0.016160292077426457,0.021393483250181377
0.1,0.01952952599485244,0.016439198485229206,0.021688194520725426
0.2,0.0198249829222199,0.016715078643322487,0.021986924358557244
0.3,0.020124584698608523,0.017004611637116786,0.022286629817552864
0.4,0.020428368759641824,0.01730437319487983,0.02258673276251579
0.5,0.02073637247337471,0.017609561046367652,0.022900228295662295
0.6,0.021048633131987477,0.017919522773890015,0.023217825929009433
0.7,0.021365187943402905,0.018234303149607944,0.023539559973487507
0.8,0.02168607402282453,0.018553764797740027,0.023865464674685716
0.9,0.02201132838419399,0.01887787217191841,0.02419557420582321
1,0.02234098793156832,0.01919908971248533,0.0245296041076951
1.1,0.02267508945041271,0.019526764464507955,0.0248668311872159
1.2,0.02301366959881002,0.019862242237707616,0.025208465338847828
1.3,0.023356764898582863,0.02020078708596316,0.025552795402035436
1.4,0.023704411726325245,0.020543745572046815,0.02589510097670829
1.5,0.02405664630434415,0.020898161296483364,0.02624102867486852
1.6,0.02441350469150345,0.021254171142211967,0.02658754634462161
1.7,0.02477502277396982,0.021615158305691003,0.026936039680499468
1.8,0.02514123625585684,0.02198163010203883,0.027288830987137535
1.9,0.025512180649759738,0.022353396281446856,0.02765286958021113
2,0.025887891267180756,0.02273311323786931,0.028025106546773385
2.1,0.026268403208835507,0.023113466788174854,0.028395742377772554
2.2,0.026653751354837503,0.023499727230768153,0.0287793198485235
2.3,0.02704397035475539,0.023892927157753662,0.029169925177994313
2.4,0.027439094617531967,0.024296923291956075,0.029558096524655894
2.5,0.02783915830126513,0.024714890222346117,0.029949820819076232
2.6,0.028244195302835094,0.02511117699138712,0.030345849560842485
2.7,0.02865423924737636,0.02551055860626365,0.03074670948755389
2.8,0.02906932347758368,0.02591480656630528,0.031150649981355336
2.9,0.029489481042839733,0.02634992233338832,0.031563511140161725
3,0.029914744688161164,0.02679218664981334,0.031984390111265366
3.1,0.030345146842945526,0.02722568509355335,0.03241416951976054
3.2,0.030780719609513948,0.027680464920517695,0.03284781884881276
3.3,0.031221494751435378,0.028132885334303463,0.03328609855284893
3.4,0.03166750368161785,0.028584338751214442,0.033730133589996665
3.5,0.03211877745016046,0.029049323651699235,0.03417717261387103
3.6,0.03257534673194375,0.029516442992344915,0.034623627156522035
3.7,0.033037241813951373,0.02996893909414064,0.03507519085742495
3.8,0.033504492582305305,0.030424865468093462,0.0355318962010278
3.9,0.03397712850899638,0.030887942619777974,0.03599377534937005
4,0.03445517863829873,0.031373589975319645,0.03646086012712392
4.1,0.03493867157284486,0.0318658429818118,0.03693294841779918
4.2,0.035427635459348544,0.032364432216843424,0.03741019748982024
4.3,0.03592209797395379,0.03286939488851242,0.037893630991002694
4.4,0.03642208630718863,0.0333807672893787,0.038381879348294214
4.5,0.036927627148507634,0.03390018484579214,0.03887832054436587
4.6,0.03743874667039544,0.03442649048832464,0.03938714834754245
4.7,0.037955470512015366,0.03495680066929565,0.03990154315602666
4.8,0.03847782376237652,0.035493438659680146,0.04041821952846384
4.9,0.03900583094299083,0.03603790545339244,0.04094526496678851
5,0.03953951599000629,0.036579442775763776,0.04146637929110315
5.1,0.040078902235776766,0.03712741795489549,0.04198849595807074
5.2,0.040624012389851055,0.03769399443609297,0.0425203063605808
5.3,0.041174868519351496,0.0382576004369025,0.04307035521551492
5.4,0.0417314920287053,0.038827400677657296,0.043628626594352495
5.5,0.04229390363871273,0.03939709902269375,0.04419272638360118
5.6,0.0428621233649051,0.03999359208399803,0.04476267478191047
5.7,0.04343617049517432,0.04058212102532054,0.04533784454539292
5.8,0.044016063566633276,0.04116575348812106,0.045912718373957946
5.9,0.04460182034167093,0.041746988830800455,0.046482616765467215
6,0.04519345778317787,0.04234706283946297,0.04707733313327465
6.1,0.0457909920288909,0.04296009979850992,0.04768155377935123
6.2,0.04639443836483287,0.043577260235926535,0.04829179904319101
6.3,0.04700381119780177,0.04420204571158307,0.04890804191047481
6.4,0.047619124026870234,0.04484027926635332,0.049529975429721373
6.5,0.0482403894138602,0.04547469169634756,0.05014929822312358
6.6,0.048867618952742796,0.04610802902495943,0.05076924844259815
6.7,0.04950082323792858,0.04675607365740088,0.05138961094314341
6.8,0.050140011831401377,0.047412141512551645,0.05201026815160567
6.9,0.050785193228649515,0.048075723786302635,0.052635880901586315
7,0.051436374823352414,0.04875098161065655,0.05326721445003638
7.1,0.052093562870771874,0.04942298023984721,0.053910370952073176
7.2,0.05275676244980456,0.05008911212354336,0.05455114767068098
7.3,0.0534259774236459,0.0507634929731246,0.055208974020598274
7.4,0.054101210399010675,0.05144182941321167,0.05589398455870382
7.5,0.05478246268387184,0.05214980631685268,0.05658625251378697
7.6,0.055469734243651724,0.05286444705914208,0.05725779257942599
7.7,0.05616302365582657,0.0535790488185895,0.05795926774028552
7.8,0.05686232806288561,0.05428769552018788,0.05867445576695533
7.9,0.05756764312358718,0.055010376613098856,0.05939560126803187
8,0.05827896296247125,0.0557357694676292,0.06009909687901567
8.1,0.05899628011755679,0.05646455939463386,0.06082528375594277
8.2,0.059719585486182065,0.05720424038137764,0.0615562840336859
8.3,0.06044886826892911,0.05793401923901806,0.06229472730863911
8.4,0.06118411591157067,0.058674993176296854,0.0630374376559441
8.5,0.06192531404499295,0.05942758369464754,0.0637843306784671
8.6,0.06267244642302991,0.06018856717130773,0.06452873786407626
8.7,0.0634254948581606,0.06094601507489778,0.06528074022848356
8.8,0.06418443915500799,0.061702056810074485,0.06604830300532312
8.9,0.06494925704158398,0.06246190705800816,0.06680831361111088
9,0.0657199240982322,0.06323623977340585,0.06758221303017255
9.1,0.06649641368420464,0.06404994953611352,0.06834048578311747
9.2,0.06727869686182497,0.06486276893820424,0.06911622755388114
9.3,0.06806674231818731,0.06566090455302033,0.06990755386558714
9.4,0.06886051628432939,0.06644909515462454,0.07070509244772512
9.5,0.0696599824518445,0.0672585509220526,0.07150838221782435
9.6,0.07046510188686927,0.06808607098011439,0.0723181582531736
9.7,0.07127583294141343,0.06888927999821688,0.0731381613870595
9.8,0.07209213116198153,0.06969122759270728,0.07396310981846689
9.9,0.07291394919544147,0.07052568168221864,0.07481285075637754
10,0.07374123669211133,0.07137049265295689,0.07566331331447414
10.1,0.07462614293195717,0.07225700775099368,0.07657264528867007
10.2,0.07551746189269992,0.07314619621627787,0.07749227011069289
10.3,0.07641515226906827,0.07404608437434113,0.07841699658050127
10.4,0.07731916959985172,0.07494629812244463,0.07935079482154687
10.5,0.07822946615810399,0.07584893671651693,0.08027928150778656
10.6,0.07914599083834833,0.0767484477352307,0.0812046856720595
10.7,0.08006868904079044,0.07766168309058598,0.08214337764377128
10.8,0.08099750255252793,0.07857554590416957,0.08308879252456759
10.9,0.08193236942575316,0.07949723535345511,0.08403897317950634
11,0.08287322385297709,0.08042680021965085,0.08499315381756598
11.1,0.08381999603927368,0.08135774681867879,0.08597738801281844
11.2,0.08477261207158465,0.08230281780205663,0.08694155397009617
11.3,0.0857309937851189,0.0832312145838863,0.08793801286398457
11.4,0.08669505862688212,0.08417692756050328,0.08891534939797738
11.5,0.08766471951641366,0.08512312050524033,0.08992675286900312
11.6,0.08863988470377429,0.08606536479974862,0.09092584454812427
11.7,0.08962045762488562,0.0870440078387548,0.09193096008569332
11.8,0.09060633675430561,0.08801922040101162,0.09294651091072652
11.9,0.09159741545554027,0.08897997679415759,0.09395744189137961
12,0.09259358182903091,0.08996223617101576,0.09496464408747429
12.1,0.0935947185579329,0.09093094060093605,0.09597608134069899
12.2,0.09460070275185624,0.091906157184985,0.09699160517392069
12.3,0.0956114057887327,0.09291255738430618,0.09801106157181574
12.4,0.09662669315499056,0.09393129108921097,0.09904060479176068
12.5,0.09764642428426455,0.09494172002495446,0.10009381661143864
12.6,0.09867045239484638,0.09594612354607074,0.10113354661010616
12.7,0.09969862432614528,0.096969022022436,0.10216822633048252
12.8,0.10073078037442426,0.0979993141578459,0.10319612467040709
12.9,0.10176675412809902,0.09901356148560905,0.1042373695144541
13,0.10280637230293735,0.10003301935183,0.1052814223365347
13.1,0.10384945457748603,0.10108037161001607,0.10633915729438578
13.2,0.10489581342911337,0.10212476525000931,0.10739703314764155
13.3,0.10594525397105595,0.10315980249046426,0.10846153634060368
13.4,0.10699757379089678,0.10419853244235533,0.10952058464075021
13.5,0.10805256279094648,0.10524308662108192,0.11058257084776407
13.6,0.10911000303099022,0.10628719162345718,0.1116467325334929
13.7,0.11016966857394231,0.10733488528750425,0.11271124578730032
13.8,0.11123132533494728,0.10838681657360323,0.11378027213971806
13.9,0.1122947309345049,0.1094501539844882,0.11484369472099223
14,0.11335963455624798,0.11052121628257931,0.11590168565626793
14.1,0.11442577681001076,0.11157965926998643,0.11695974467898329
14.2,0.11549288960087577,0.11263433785160387,0.11802552690115947
14.3,0.11656069600492186,0.11369097116359854,0.11908855535811491
14.4,0.11762891015240882,0.11475359409918309,0.12016194421519577
14.5,0.11869723711920996,0.11581803415004926,0.12122335243667587
14.6,0.11976537282728711,0.11688428061086448,0.12228076378583426
14.7,0.12083300395508224,0.11795608974418283,0.12333908766993633
14.8,0.12189980785870774,0.1190255851149459,0.12441234669775304
14.9,0.12296545250484642,0.12010170285620328,0.12547946589349906
15,0.12402959641632984,0.12117383991123531,0.12653178768689144
15.1,0.12509188863136045,0.12223650593994707,0.12759382150385762
15.2,0.12615196867739784,0.12329801731738678,0.12864578365636156
15.3,0.1272094665607452,0.1243647253693568,0.1296907487024873
15.4,0.12826400277288652,0.12543271427356284,0.13073817733614454
15.5,0.12931518831467317,0.1265064291690467,0.13177935752536718
15.6,0.1303626247394457,0.127566359011554,0.13281204528996415
15.7,0.13140590421621595,0.12861362429861442,0.13384357645873066
15.8,0.13244460961404084,0.12965840322212446,0.13487976481044833
15.9,0.13347831460870635,0.13070129510376174,0.1359060096210848
16,0.1345065838128841,0.13173789824583862,0.13691485042345644
16.1,0.135528972930876,0.13274637440345163,0.13791850300779682
16.2,0.13654502893908788,0.1337596289516608,0.13890419626107178
16.3,0.13755429029334618,0.13475581325734137,0.13988653892092662
16.4,0.13855628716414292,0.13575342693872564,0.1408869391672176
16.5,0.1395505417008982,0.13674890108487678,0.14189199428886018
16.6,0.1405365683262511,0.137720411402753,0.1428701998711955
16.7,0.14151387406139337,0.13871942041882437,0.14384480687574303
16.8,0.14248195888338333,0.13969481536137812,0.14481044485026498
16.9,0.14344031611531635,0.14066318552009618,0.1457562535397745
17,0.14438843285019115,0.14159857657838323,0.1466884783417519
17.1,0.14532579040919846,0.14251886331648034,0.14762210071023654
17.2,0.1462518648350971,0.14341253317020458,0.14853298436525342
17.3,0.1471661274212441,0.14429203143256877,0.14944822380852152
17.4,0.1480680452767256,0.14519766828968755,0.15032348033531526
17.5,0.14895708192794496,0.14608013926176183,0.15119884932655533
17.6,0.14983269795687115,0.146953008679547,0.15207726948950623
17.7,0.15069435167603806,0.14779446915404434,0.15293721029550716
17.8,0.1515414998402303,0.14860821648703632,0.15377903344188043
17.9,0.15237359839462603,0.14942395561476204,0.1546114215534105
18,0.15319010325902546,0.15022710661752475,0.15542244916911477
18.1,0.1539904711475919,0.15100122090486376,0.15622173727884198
18.2,0.1547741604233703,0.1517716534648374,0.15701226274012697
18.3,0.15554063198664783,0.1525163347753874,0.15779161273108727
18.4,0.15628935019601453,0.15324609479929618,0.15853476345171394
18.5,0.1570197838207957,0.15395563259263,0.15925363685814858
18.6,0.15773140702329072,0.15462038654725033,0.15997302834555313
18.7,0.15842370036906162,0.15526409086487825,0.16067637111378763
18.8,0.1590961518632768,0.1559065873029786,0.16138220382533386
18.9,0.15974825801089537,0.15653457864175208,0.16206006819527566
19,0.16037952489827023,0.15713478123774866,0.1627028301098975
19.1,0.16098946929349825,0.15771083346430617,0.16331152313023303
19.2,0.16157761976265603,0.15827148245815978,0.16392227400847836
19.3,0.16214351779882036,0.15883236967176112,0.16449325059553693
19.4,0.16268671896057296,0.1593503073498634,0.16505963114635067
19.5,0.16320679401649213,0.15985105955776369,0.16556920961697727
19.6,0.16370333009192717,0.16033513090003682,0.1660736708207017
19.7,0.1641759318141869,0.16081168404228585,0.16655113478927105
19.8,0.16462422245209954,0.1612479591431818,0.16701950000848909
19.9,0.16504784504574438,0.16162831455815702,0.16746249871093727
20,0.16544646352204206,0.16198880805063898,0.16784469070756097
20.1,0.16581976379175428,0.1623528622231846,0.1682125267230139
20.2,0.16616745482337075,0.162669522334726,0.1685797544177122
20.3,0.1664892696892848,0.16298404246894138,0.16890871499256593
20.4,0.1667849665796153,0.16327723858751217,0.16919879951029704
20.5,0.16705432977902515,0.16354171742072152,0.1694821973797601
20.6,0.1672971706018876,0.16377563339163054,0.16974686233689532
20.7,0.1675133282812012,0.1639750876153133,0.16996983746952526
20.8,0.16770267080672194,0.1641729236939324,0.1701653298091654
20.9,0.1678650957078827,0.16433115896087835,0.1703317892512238
21,0.16800053077720506,0.16444877520971243,0.17047792602744874
21.1,0.1681089347300702,0.1645481341907565,0.17060760758769744
21.2,0.16819029779691488,0.1646012155137445,0.1706873128022321
21.3,0.16824464224413976,0.16465690891244647,0.17074671085885623
21.4,0.16827202282027848,0.16467487159261493,0.17078515772954853
21.5,0.16827252712425517,0.16469744528103777,0.170774998941121
21.6,0.16824627589287733,0.164635468153237,0.1707603570806889
21.7,0.16819342320503838,0.16452201006721484,0.17072440370367734
21.8,0.16811415660047993,0.16441638618599025,0.17066672521928186
21.9,0.1680086971113309,0.16427094583857146,0.17059605424303834
22,0.16787729920505548,0.1641044998616896,0.17051869906320208
22.1,0.16772025063785226,0.1639067669274806,0.17039013075360585
22.2,0.1675378722179766,0.1636655760015566,0.17026652168586393
22.3,0.16733051747890784,0.16337675853274217,0.17014635340082035
22.4,0.16709857226271405,0.1630726793585193,0.16994777997214972
22.5,0.16684245421443275,0.16276712694956103,0.16975245015102272
22.6,0.16656261218872254,0.1624114269923395,0.16956181331011735
22.7,0.1662595255704925,0.16201942643192752,0.16933307692787206
22.8,0.16593370351164663,0.16160686975933028,0.16907070146122463
22.9,0.16558568408651309,0.16116688631747342,0.16880633620777263
23,0.16521603336892923,0.16071806777119363,0.1685378220845192
23.1,0.16482534443435226,0.16025227183341662,0.1682674469486486
23.2,0.16441423629073365,0.1597074836401089,0.16798190361276025
23.3,0.16398335274223777,0.15917363220304379,0.16769809681577133
23.4,0.1635333611902101,0.1586087086453881,0.1673646963447824
23.5,0.1630649513760838,0.15800405295486425,0.16700719796804026
23.6,0.16257883407117824,0.15737798967207822,0.16662616421309207
23.7,0.16207573971855635,0.1567659161989394,0.16622877594564983
23.8,0.16155641703230486,0.15611377133309368,0.16583656990276371
23.9,0.16102163155976035,0.15546422074481625,0.1654229485655428
24,0.16047216421229724,0.1547563861078686,0.16506171517030066
24.1,0.1599088097704023,0.15406163244807192,0.16470217200920662
24.2,0.15933237536877753,0.15330571947135366,0.164329707111838
24.3,0.1587436789672299,0.15253703400221313,0.16394653511266247
24.4,0.15814354781307938,0.15180626584959883,0.16352612621035217
24.5,0.15753281690072535,0.15107106463252337,0.16310748279951928
24.6,0.15691232743394906,0.15028343081872145,0.1626582906400338
24.7,0.15628292529636076,0.14947549042865194,0.16220021382243438
24.8,0.15564545953525002,0.14871153195398415,0.16173089437772886
24.9,0.15500078086392244,0.14792897665425792,0.16125903538060946
25,0.15434974018734765,0.1470938366678922,0.16076895462271676
25.1,0.1536931871557488,0.1462967247005601,0.16026820502969433
25.2,0.15303196875046335,0.14552083674399144,0.15976609807423733
25.3,0.1523669279061435,0.1447342660553041,0.15927179829418567
25.4,0.1516989021730623,0.14394715940365987,0.15877590847250014
25.5,0.15102872242298293,0.1431541906359238,0.1582766512680591
25.6,0.15035721160173013,0.14233630013446316,0.15777466090597292
25.7,0.14968518353127236,0.14152261595295787,0.15726992064061196
25.8,0.14901344176379594,0.14071696368075817,0.15675751938570145
25.9,0.14834277848992114,0.13990887893957166,0.156233378839689
26,0.14767397350287595,0.13911849419412625,0.15572731074756987
26.1,0.147007793220107,0.1383408231256195,0.15522388591784617
26.2,0.1463449897635029,0.13756789385120743,0.15471254167858053
26.3,0.14568630009905895,0.13680013344920772,0.15418090682846544
26.4,0.1450324452365458,0.13603390618804784,0.15365060930122737
26.5,0.1443841294893991,0.13526715654364588,0.15311394795846622
26.6,0.1437420397948122,0.13450342552438077,0.1525747520585621
26.7,0.14310684509370644,0.13375926336741703,0.15203338784904763
26.8,0.14247919577001844,0.1330287261591208,0.15155684346998943
26.9,0.14185972314851025,0.13231201718441293,0.15108874760323115
27,0.14124903905005312,0.13161398126624602,0.15062387556652795
27.1,0.1406477354031793,0.13092033872314293,0.15015038955934307
27.2,0.1400563839104648,0.13022813106530856,0.1496334167966858
27.3,0.1394755357681586,0.12956050918568893,0.14913224762568408
27.4,0.13890572143732435,0.12891838687107227,0.14865933517602828
27.5,0.13834745046460636,0.1283148247948003,0.14819472430439062
27.6,0.1378012113506418,0.12772190100544062,0.14771143519499524
27.7,0.13726747146401688,0.12713967040350552,0.14726058614207554
27.8,0.13674667699859308,0.1265435436976021,0.1468263967380421
27.9,0.13623925297197306,0.12594658966353442,0.14640153977944403
28,0.13574560326279309,0.12537482198611408,0.14596282234037913
28.1,0.13526611068453281,0.12484644069070386,0.14555098618031184
28.2,0.13480113709347208,0.12435944033053639,0.1451776213434738
28.3,0.13435102352844241,0.12387579898817673,0.14483270691012579
28.4,0.1339160903800095,0.12341646836921605,0.14449695521928263
28.5,0.1334966375867381,0.12297501769804532,0.14417058752034723
28.6,0.13309294485621978,0.1225623144609592,0.1438472290807526
28.7,0.1327052719085753,0.1221599367398565,0.14353724289336375
28.8,0.1323338587401812,0.1217702098215331,0.1432488644476058
28.9,0.13197892590543064,0.12139852360148447,0.14295923979105257
29,0.1316406748143863,0.1210557072369597,0.14269005702563597
29.1,0.13131928804425225,0.12076665732721226,0.14241203640115407
29.2,0.1310149296626557,0.12049080674914317,0.14215849808018813
29.3,0.13072774556080685,0.1202006752217847,0.1419162647354077
29.4,0.13045786379468047,0.11990627043549584,0.1416783683680056
29.5,0.1302053949324437,0.11964851364814849,0.14145353819110673
29.6,0.12997043240642975,0.11942426610937662,0.1412426392018135
29.7,0.12975305286805483,0.11919119794298082,0.14105047512283267
29.8,0.12955331654414717,0.11897238826209881,0.14087193102016532
29.9,0.12937126759325587,0.1188016192321234,0.140724152854733
30,0.12920693446057507,0.11865674093653752,0.14057853590475466
30.1,0.12906033023023594,0.11852910308185069,0.1404384875295246
30.2,0.128931452973762,0.11841579616695785,0.14031682503114426
30.3,0.12882028609361398,0.11832575442118728,0.14020846494624206
30.4,0.12872679866079625,0.11825061913019677,0.14011747478309017
30.5,0.12865094574560082,0.11819240570056691,0.140030211824033
30.6,0.12859266874063757,0.11814546670784312,0.1399491390225341
30.7,0.12855189567537545,0.1181265485346723,0.13988991633229075
30.8,0.12852854152150855,0.11812243885840057,0.13984617068164654
30.9,0.12852250848851324,0.11814021209190625,0.13981589296908226
31,0.12853368630885986,0.11818947781853475,0.13979845440368815
