temp,mean,conf_lower,conf_upper
0,0.008454066048442583,0.0062235310724097145,0.010406971622137632
0.1,0.008575918168127708,0.006329001954813001,0.010533737241673096
0.2,0.008699928367496107,0.006436622873099613,0.010665200790723571
0.3,0.008826127338682469,0.006546429814176675,0.01080293428332653
0.4,0.008954546021930156,0.006658889670834942,0.010943507268420005
0.5,0.00908521560305433,0.00677397655284201,0.011086205933624606
0.6,0.009218167510783023,0.006891402331467627,0.0112311903734583
0.7,0.009353433413977853,0.007011205893361104,0.011372601141066715
0.8,0.009491045218733065,0.007133426508023249,0.0115154459839196
0.9,0.00963103506535224,0.0072581038235319025,0.0116648859428543
1,0.0097734353252036,0.007385277861980334,0.01181490650618773
1.1,0.009918278597451948,0.0075149890146231696,0.011963649992791453
1.2,0.01006559770566887,0.0076472780367278234,0.012114421237181918
1.3,0.010215425694320487,0.007782186042127613,0.012267493389442793
1.4,0.010367795825132232,0.007919754497472785,0.012422895290924468
1.5,0.010522741573331822,0.008060025216177666,0.01258065600682462
1.6,0.010680296623769781,0.00820214482447902,0.0127408048248815
1.7,0.01084049486691854,0.008345231583438813,0.0129033712539853
1.8,0.011003370394750085,0.0084910395087408,0.013068385022705947
1.9,0.011168957496492129,0.00863960925473144,0.013235876077735617
2,0.01133729065426485,0.008790981771629824,0.013405874582246404
2.1,0.011508404538596792,0.008945198299041541,0.013578410914159816
2.2,0.011682334003822192,0.009102300359221533,0.013753772521575601
2.3,0.01185911408336058,0.009262329750085837,0.013932322670811285
2.4,0.012038779984876975,0.0094249500733717545,0.014114341926989396
2.5,0.01222136708532804,0.009590631261104694,0.014300752958558665
2.6,0.01240691092589032,0.009759729701529735,0.01448739881346237
2.7,0.012595447206775093,0.009932021118086326,0.014676017452537897
2.8,0.012787011781929977,0.01010745774927324,0.014867395143457666
2.9,0.012981640653626732,0.010287278925607296,0.015061563859964978
3,0.013179369966940257,0.010470868999806404,0.01525917375078533
3.1,0.013380236004115285,0.010652462288164202,0.015464455471423092
3.2,0.01358427517882629,0.010840429143768341,0.015676207753462228
3.3,0.013791524030330127,0.011031748297585358,0.015891130917988293
3.4,0.014002019217511673,0.011226571779674848,0.016109261365456387
3.5,0.014215797512826953,0.01142517278554471,0.016326060263772122
3.6,0.014432895796141987,0.011627269809890341,0.01654552562576434
3.7,0.014653351048471059,0.011832254280019147,0.016768167563723485
3.8,0.014877200345615377,0.012041355769750177,0.01699402129720883
3.9,0.015104480851702726,0.012253665757397843,0.017223855761314077
4,0.01533522981263144,0.012469641758402377,0.017460961500600256
4.1,0.015569484549417815,0.012687087551195738,0.01770142475070746
4.2,0.01580728245145138,0.012904586372541221,0.017945279514976608
4.3,0.01604866096965731,0.013126209919576436,0.018192405383657476
4.4,0.016293657609567563,0.013351636052151346,0.018442667580266896
4.5,0.016542309924304735,0.013582782491825299,0.01869641120989635
4.6,0.01684685823341276,0.013864794303096586,0.01901605184724576
4.7,0.017156190786368427,0.01415229057900553,0.01934036546940708
4.8,0.01747036388003113,0.014444869443006781,0.0196627017376544
4.9,0.017789434086720998,0.014742597169882752,0.01998916906323673
5,0.018113458248284885,0.015038707354329613,0.02031971525652226
5.1,0.018442493470027566,0.015343045546868822,0.02065423751400332
5.2,0.01877659711451149,0.015653947037636704,0.02099356808381435
5.3,0.019115826795223268,0.015975212651562806,0.02134218589056419
5.4,0.019460240370101817,0.016288399759112844,0.021699120395586347
5.5,0.019809895934934273,0.016604634606133747,0.022061106612990947
5.6,0.020164851816610384,0.016933693128651766,0.022426940482250385
5.7,0.02052516656623951,0.017260630211297687,0.022798012015221195
5.8,0.020890898952127056,0.017602374044196553,0.023171296701684135
5.9,0.021262107952605098,0.017955523404526465,0.023547020718183688
6,0.021638852748721536,0.018315299433081435,0.023939946804723992
6.1,0.022021192716778753,0.018681073487832427,0.024338357872984738
6.2,0.022409187420723873,0.019052914483626348,0.0247423086419438
6.3,0.0228028966043865,0.019430709556695215,0.025151733011999113
6.4,0.023202380183559593,0.01981424228744234,0.025564980972560228
6.5,0.023607698237923358,0.02019589609043651,0.025983165754615276
6.6,0.024018911002804327,0.020585362279141487,0.026405981704279137
6.7,0.02443607886077055,0.020983994343376212,0.026834660009049657
6.8,0.02485926233305613,0.021387077265244935,0.027267511042114428
6.9,0.025288522070809543,0.021795984137810313,0.02769983617873921
7,0.0257239188461661,0.022217785480076545,0.028137304048695962
7.1,0.026165513543133016,0.02264264548348987,0.028576904761084966
7.2,0.02661336714828651,0.02307397504475663,0.02902004651540048
7.3,0.02706754074127502,0.023513580963282234,0.029469074365899864
7.4,0.027528095485118198,0.023960298873926447,0.029930960623178744
7.5,0.027995092616302043,0.024416606502235337,0.030403815900210983
7.6,0.028468593434656315,0.02487522036993673,0.030877805782576158
7.7,0.02894865929301208,0.025341446813941734,0.031366454752890745
7.8,0.029435351586630944,0.02581543061806232,0.031863872514529025
7.9,0.02992873174239368,0.026301767212654918,0.032360620917593806
8,0.030428861207747526,0.0268038222814335,0.03286271079091048
8.1,0.030935801439394027,0.027285976281011926,0.033370917738291296
8.2,0.031449613891715134,0.02777303602101211,0.033885792806813184
8.3,0.03197036000492584,0.028266805190856767,0.03440481044157807
8.4,0.03249810119293793,0.028793317829343957,0.03493148943283578
8.5,0.03303289883093293,0.02932888764149937,0.03546801450198545
8.6,0.033574814242622736,0.029857633552594284,0.036016903412196384
8.7,0.034123908687193685,0.03040963654897215,0.03657507334700965
8.8,0.034680243345918245,0.030961289946150543,0.03713444580544194
8.9,0.03524387930841759,0.031514020651973965,0.03770143189273179
9,0.03581487755856968,0.03208236201596647,0.03827326842213406
9.1,0.03639329896003809,0.03265495223901543,0.03884648858432053
9.2,0.03697920424141412,0.03321506925909777,0.03942951583427392
9.3,0.037572653980954406,0.033780802574127654,0.04002395467047973
9.4,0.038173708590893175,0.03435633958247043,0.04062640680391546
9.5,0.0387824283013197,0.03495707382001917,0.04123619024687392
9.6,0.03939887314359452,0.03556675260513694,0.04185326297738287
9.7,0.04002310293329303,0.036185145402062045,0.042471922817012356
9.8,0.040655177252653496,0.03681232868839319,0.04309820116104769
9.9,0.0412951554325075,0.03744837840476812,0.043735889477273915
10,0.04194309653367787,0.03809496999962999,0.044382351236679
10.1,0.04259905932781403,0.038750986794805334,0.0450399225264593
10.2,0.04326310227765087,0.039413585997880994,0.045705088579333975
10.3,0.04393528351666364,0.04008513199366528,0.046374837104032035
10.4,0.0446156608280897,0.04076716724272274,0.04705728444383838
10.5,0.04530429162330475,0.04144897528379896,0.04773615948405317
10.6,0.046001232919513184,0.04213907007123203,0.04841842496907764
10.7,0.04670654131673623,0.0428487333113893,0.0491128018006915
10.8,0.04742027297406822,0.04355814723750082,0.049827864424346266
10.9,0.04814248358516406,0.044276517224246255,0.05055362685821351
11,0.04887322835294422,0.04499758808618109,0.05128772515197298
11.1,0.04961256196346853,0.04574829767489709,0.052030209882195685
11.2,0.05036053855896315,0.04649392867639959,0.05278074125309392
11.3,0.05111721170996049,0.04723759053006441,0.05353416523089463
11.4,0.05188263438651454,0.04798144619602973,0.05428608287858201
11.5,0.05265685892847255,0.04874720139242518,0.05506721027795871
11.6,0.053439937014747856,0.04952933679189717,0.055858076778939
11.7,0.0542319196315746,0.05031878864587038,0.056656940681854305
11.8,0.05503285703969838,0.05111901075271383,0.057464561240057874
11.9,0.055842798740463606,0.05193706548381813,0.05828066347581175
12,0.05666179344076709,0.05275506798801148,0.05909759616003431
12.1,0.05748988901682472,0.053569998604981156,0.05992282810014664
12.2,0.058327132476721506,0.05440601009302674,0.06075494288273104
12.3,0.059173569921698144,0.05525339710199452,0.061590523255719364
12.4,0.06002924650612783,0.056111802857835,0.0624342664531681
12.5,0.060894206396146004,0.056985661688058784,0.06328239889993391
12.6,0.0617684927268805,0.05785975734159507,0.06414502076396292
12.7,0.06265214755824226,0.05873087369542003,0.06500843942052986
12.8,0.06354521182922791,0.059614356034732294,0.0658921195039325
12.9,0.06444772531068003,0.060505002462467025,0.06680696450614329
13,0.06535972655646992,0.06142895536711258,0.06773633820051263
13.1,0.06628125285303618,0.06236104190219534,0.06864834151625884
13.2,0.06721234016724459,0.06329314248298824,0.06959367144138753
13.3,0.06815302309250956,0.06422341273162184,0.07055598533673821
13.4,0.06910333479312138,0.06517151995710772,0.07152739303442417
13.5,0.07006330694674262,0.06612805925131202,0.07248463227503742
13.6,0.07103296968499899,0.06709887761027322,0.07346807837655216
13.7,0.0720123515321294,0.06808513643073819,0.07445988770219703
13.8,0.07300147934163369,0.06906562099086223,0.07545602203833546
13.9,0.07400037823085882,0.07006147477822505,0.07645939619520674
14,0.07500907151347988,0.07106633255014662,0.07747050901254109
14.1,0.07602758062980908,0.0720867955493891,0.07848272752155852
14.2,0.07705592507488865,0.0731092495002619,0.07950616837152692
14.3,0.07809412232430635,0.0741396032452537,0.08055339036857942
14.4,0.07914218775767556,0.07516460709311996,0.08160019002947724
14.5,0.08020013457973872,0.07620603914268982,0.08266482046647933
14.6,0.08126797373902372,0.07729865531320024,0.0837178044899683
14.7,0.08234571384401151,0.07838735487338425,0.08479227609856378
14.8,0.08343336107676247,0.07947502348199463,0.0858833078692654
14.9,0.08453091910393785,0.08056297564136189,0.0869809493963663
15,0.08563838898518585,0.08167761926027778,0.08809773469961205
15.1,0.08675576907882339,0.08281510104586193,0.08922510836830844
15.2,0.08788305494478298,0.08393309043968235,0.0903668455466724
15.3,0.0890202392447727,0.08505449968230483,0.091517698679278
15.4,0.0901673116396021,0.08621306114599456,0.09269754914832615
15.5,0.09132425868364628,0.08737908965729974,0.09388204160829464
15.6,0.09249106371639931,0.08855329612804441,0.0950662192492496
15.7,0.09366770675108883,0.08973704392434051,0.09626397364864477
15.8,0.09485416436032457,0.09093360376914167,0.09746838497457866
15.9,0.09605040955874411,0.09213392812653688,0.09867868527428107
16,0.09725641168265017,0.09334713951416977,0.0998867732602068
16.1,0.0984721362666034,0.09455780170865521,0.10109198416016008
16.2,0.09969754491697681,0.09578612878400439,0.10231127738349978
16.3,0.10093259518245987,0.0970195097898248,0.10354052498439725
16.4,0.10217724042150264,0.09826493191090092,0.10478459878249749
16.5,0.10343142966673008,0.09952507822067037,0.1060397611876552
16.6,0.10469510748631787,0.1007862262552886,0.10732350861519144
16.7,0.10596821384236918,0.1020665007567071,0.10859891034808113
16.8,0.1072506839463224,0.10333588662641771,0.10991239534397301
16.9,0.10854244811141744,0.10463220793467023,0.11120228215309078
17,0.1098434316022986,0.10594177963273019,0.11252597936514305
17.1,0.11115355448178474,0.10722449836905085,0.11384028635111684
17.2,0.11247273145490765,0.10854546240285756,0.11516404509091632
17.3,0.11380087171029396,0.10986658950021923,0.11650001674089386
17.4,0.11513787875898103,0.1112030363038795,0.11784067045092972
17.5,0.11648365027080367,0.11256712373473543,0.11918459673794488
17.6,0.11783807790845345,0.11390753517171338,0.12054022452952168
17.7,0.1192010471593763,0.11527437729169161,0.12190235353865701
17.8,0.12057243716566145,0.11666865983118538,0.12327156867071108
17.9,0.12195212055209076,0.11807289856651944,0.12465512736585183
18,0.12333996325256968,0.11948092678491803,0.12606383803760762
18.1,0.1247358243351272,0.12088359948899527,0.12745693953629023
18.2,0.1261395558257466,0.12228865166936853,0.12884853453913186
18.3,0.12755100253127802,0.12370173605655346,0.13023690167879798
18.4,0.12897000186170357,0.12510410880476497,0.13164217800698194
18.5,0.13039638365208142,0.12653262335464113,0.13305269729634644
18.6,0.1318299699844767,0.1279939683019235,0.13447916649350677
18.7,0.13327057501025397,0.12945698517553667,0.13590921991921995
18.8,0.1347180047731008,0.13091620121052555,0.13735034418119707
18.9,0.13617205703319032,0.13238396310289272,0.1387890637822319
19,0.13763252109293836,0.13386384669964418,0.1402371256064211
19.1,0.13909917762479337,0.13534839011401453,0.14169793688971194
19.2,0.14057179850158552,0.13683871583390897,0.14316282981019307
19.3,0.14205014662994828,0.1383377639005894,0.14463345539408456
19.4,0.14353397578736415,0.13985417123378252,0.14611010558123208
19.5,0.14502303046344914,0.14137346535851458,0.1475735647427764
19.6,0.14651704570607696,0.14288463605769852,0.1490346309307436
19.7,0.14801574697301373,0.1444086679510999,0.15050770294966878
19.8,0.14951884998975712,0.14592967428051148,0.15199968750716222
19.9,0.15102606061428103,0.14746082016793838,0.15350839669293853
20,0.1525370747094801,0.1489916021003333,0.15500910719813943
20.1,0.1540515780240645,0.15054887074004952,0.15650970132607162
20.2,0.15556924608276046,0.15210158789640377,0.15801173142460567
20.3,0.15708974408665854,0.15364490878889028,0.15952213078838445
20.4,0.1586127268245872,0.15518980201616878,0.1610185753905463
20.5,0.1601378385964534,0.15674692619785627,0.16252291488654147
20.6,0.16166471314946831,0.15830520340698936,0.16404418490975056
20.7,0.16319297362825286,0.1598640716599522,0.16556498155848587
20.8,0.1647222325398139,0.16143334457291664,0.1670833446290425
20.9,0.1662520917344045,0.16301488971638425,0.16860326682301163
21,0.16778214240332978,0.16459584300341393,0.17011374924230305
21.1,0.16931196509473656,0.16615939902189025,0.17161764373977084
21.2,0.17084112974847565,0.1677224199192875,0.17311876616469216
21.3,0.17236919575112172,0.1692883586925485,0.1746225395726112
21.4,0.17389571201222365,0.17085726439259158,0.17611899523174665
21.5,0.1754202170629047,0.1724288546403175,0.17760140886666823
21.6,0.1769422391778781,0.17396720981881983,0.17908806913498848
21.7,0.1784612965219739,0.17550350949176535,0.18055197267776746
21.8,0.179976897322242,0.17702826672172517,0.18202712791881895
21.9,0.18148854006666146,0.17855564709720584,0.1835450476481858
22,0.18299571373050522,0.18010772563009964,0.18507237222040074
22.1,0.18449789803130606,0.18163966016285357,0.1865495815364617
22.2,0.18599456371339776,0.18319616887819234,0.18805030209445295
22.3,0.18748517286290836,0.18472018113148017,0.18955257794640903
22.4,0.18896917925402654,0.1862486120598233,0.191037512880817
22.5,0.19044602872733438,0.18774371478490776,0.1924868222622089
22.6,0.19191515960086494,0.18922369300958447,0.19395998565271694
22.7,0.1933760031145041,0.1906847524334959,0.1954132509464014
22.8,0.19482798390824324,0.1921185929223136,0.196875555973703
22.9,0.19627052053466953,0.1935853825403771,0.19829935413129438
23,0.19770302600599765,0.19503685395660297,0.1997240062542371
23.1,0.19912490837578578,0.19648911356269055,0.20114155188215938
23.2,0.20053557135537237,0.19790005508517378,0.2025417427705285
23.3,0.20193441496490816,0.19927852499952545,0.20393620552921526
23.4,0.20332083621869834,0.20065929089309537,0.205310473799065
23.5,0.2046942298444307,0.2020381736053859,0.20667860193551518
23.6,0.20605398903565456,0.20342390063108692,0.2080166974361951
23.7,0.2073995062367242,0.2048021681230225,0.2093603227302846
23.8,0.20873017395921978,0.20613588355865753,0.2107051452994656
23.9,0.21004538562864122,0.2074415241965229,0.212016000138125
24,0.21134453646000878,0.20874454175628024,0.21330105757537265
24.1,0.21262702436074218,0.210019369976169,0.21458976184801928
24.2,0.21389225085902366,0.2112487844905539,0.2158692529858705
24.3,0.215139622055601,0.21247160497610945,0.21715290826014327
24.4,0.2163685495967693,0.21370862427181936,0.2184302513713863
24.5,0.21757845166607684,0.21492249139888026,0.21966973221447528
24.6,0.21876875399204265,0.21610304691220328,0.22086811657165734
24.7,0.2199388908689875,0.2172653880954321,0.22207417864976417
24.8,0.22108830618785746,0.21843358460309545,0.22324754543838382
24.9,0.2222164544737037,0.21955400830242527,0.2244212569046608
25,0.22332280192631124,0.22066128891995102,0.22552877586824158
25.1,0.22440682746024793,0.2217405330883987,0.2266241189787579
25.2,0.22546802374046587,0.22281942009523512,0.227700944349228
25.3,0.2265058982094042,0.22384829239578857,0.2287661066424925
25.4,0.22751997410139574,0.22483715015249928,0.22980235149485728
25.5,0.22850979144008488,0.2258109736641561,0.230776737912136
25.6,0.22947490801441756,0.2267769159132116,0.23176297425358197
25.7,0.2304149003287159,0.22771170992548495,0.23272329637258718
25.8,0.23132936452227665,0.22861288300863114,0.23367543115486636
25.9,0.23221791725389232,0.229498642743489,0.23456712819009073
26,0.2330801965467173,0.23034953849288042,0.23546900344403923
26.1,0.23391586258888314,0.23115992470354674,0.23633434901203484
26.2,0.23472459848536295,0.23196618097044175,0.2371584889132748
26.3,0.23550611095664106,0.23276143453824882,0.23796010770789283
26.4,0.23626013097986337,0.2334968934675936,0.2387242501700432
26.5,0.23698641436831258,0.23421511529029168,0.23945940436030777
26.6,0.23768474228519876,0.23489371251255106,0.2401777072241173
26.7,0.23835492168800057,0.23552337835535328,0.24084425796710313
26.8,0.23899678569981636,0.23618238903150773,0.24149026138855756
26.9,0.2396101939044595,0.2368101785440156,0.24212592634257
27,0.2401950325623536,0.23742137982591568,0.24273151150386368
27.1,0.2407512147445907,0.2379389462158179,0.2433169989297101
27.2,0.24127868038289715,0.23841705704489422,0.24387258351875937
27.3,0.24177739623362915,0.2389021193805539,0.2443937755237891
27.4,0.24224735575431172,0.23932420845025407,0.24490246313431369
27.5,0.2426885788916908,0.23972091271128426,0.2453963054995258
27.6,0.24310111178068197,0.24011191816755995,0.24585148226541548
27.7,0.24348502635407793,0.24044889443762418,0.24629710008061473
27.8,0.24384041986333282,0.24072113040514412,0.24674401722689498
27.9,0.24416741431121713,0.24096944458821973,0.2471077436953061
28,0.2444661557976317,0.24120639128920945,0.2474723102078763
28.1,0.24473681378031875,0.24141264233478477,0.24783762810531895
28.2,0.24497958025271965,0.24158127569841967,0.24815852990835918
28.3,0.24519466884166807,0.24172688114207674,0.24844616315936463
28.4,0.24538231382808004,0.24182372247261766,0.2487185414959291
28.5,0.24554276909424427,0.24191039641227358,0.2489714932388017
28.6,0.24567630700174026,0.2419742975508088,0.2492102882154355
28.7,0.2457832172044157,0.2419321849427406,0.2494323571669101
28.8,0.24586380540124136,0.24190331342049176,0.24965220636844432
28.9,0.24591839203420135,0.24184828209259723,0.2498252086672464
29,0.24594731093672406,0.24173972508894703,0.24995728198258205
29.1,0.24595090793842728,0.24160731804392727,0.25006043941460576
29.2,0.24592953943222448,0.24150693668402445,0.2501383477813122
29.3,0.2458835709100582,0.24135855387391192,0.250224961930037
29.4,0.24581337547371362,0.24120958401854908,0.2502760076551264
29.5,0.2457193323273074,0.24097315219908474,0.2503573126103182
29.6,0.24560182525816823,0.24073138578288206,0.25044273053568133
29.7,0.2454612411128823,0.24041859138667837,0.2505035679511872
29.8,0.24529796827532163,0.24008943068317673,0.2505390826541021
29.9,0.2451123951534584,0.23979060171839356,0.25052841406922277
30,0.24490490868172066,0.23948252380194007,0.2505044890882075
30.1,0.24467589284558072,0.2390988030354701,0.25043041340353867
30.2,0.24442572723492584,0.23867552872938536,0.25033870170183103
30.3,0.2441547856326272,0.23828480318244333,0.2502358220841452
30.4,0.24386343464453908,0.2378631045152969,0.2501077605578559
30.5,0.243552032376927,0.23738275962993186,0.24994764556212004
30.6,0.24322092716711163,0.23690402903277968,0.24976828306841348
30.7,0.24287045637281499,0.23643173238426293,0.24955749253461762
30.8,0.24250094522542148,0.23593193207514465,0.249330472790766
