temp,mean,conf_lower,conf_upper
0,2.2468695332005373,1.9751424096399737,2.4985565328805945
0.1,2.248609168348228,1.9782969748147985,2.4989955607254193
0.2,2.2503306170697934,1.9814260289376353,2.4994231524208637
0.3,2.252033879365234,1.9845295720084843,2.4998393079669285
0.4,2.253718955234548,1.987607604027345,2.500260758425578
0.5,2.255385844677737,1.9906601249942175,2.500682832669254
0.6,2.2570345476947997,1.993687134909102,2.5010931760768926
0.7,2.2586650642857373,1.9966886337719987,2.5014917886484938
0.8,2.26027739445055,1.9996646215829075,2.501878670384057
0.9,2.261871538189236,2.0026150983418276,2.502253821283583
1,2.263447495501797,2.005541568166533,2.5026172413470715
1.1,2.265005266388232,2.008450518288827,2.502968930574522
1.2,2.266544850848542,2.0113338569070702,2.5033068122874127
1.3,2.268066248882726,2.0141915840212627,2.5036320554994163
1.4,2.269569460490785,2.0170236996314044,2.50394558440556
1.5,2.2710544856727175,2.0198302037374942,2.504247399005842
1.6,2.272521324428525,2.022611096339533,2.5045374993002634
1.7,2.273969976758207,2.0253663774375212,2.5048539746443605
1.8,2.275400442661763,2.0282136424174553,2.505280256707407
1.9,2.2768127221391934,2.0310437258466227,2.5056936772816707
2,2.2782068151904986,2.0338468495995063,2.5060942363671526
2.1,2.2816860854858807,2.0401800055255155,2.507073357525117
2.2,2.285128982929012,2.0463025664250276,2.5080289529054944
2.3,2.288535507519892,2.0523751410650384,2.5089610225082852
2.4,2.2919056592585205,2.0583977294455473,2.5098258709565098
2.5,2.295239438144898,2.064370331566555,2.510490943518218
2.6,2.2985368441790244,2.0703025889227415,2.511134303188218
2.7,2.301797877360899,2.0762868833736956,2.5117441704012604
2.8,2.305022537690524,2.082235787569218,2.5123814952435706
2.9,2.3082108251678966,2.088133675761536,2.513019545962278
3,2.311362739793018,2.093980547950651,2.5136351925348324
3.1,2.314478281565889,2.099776404136561,2.5142257434072937
3.2,2.317557450486508,2.1053395349753696,2.5147916312471574
3.3,2.3206002465548767,2.110849548622362,2.515335181933571
3.4,2.323606669770994,2.116566461336026,2.515856395466535
3.5,2.3265767201348595,2.1223082511321607,2.5163314945559363
3.6,2.3295103976464744,2.1279981767541196,2.516748101514481
3.7,2.332407702305838,2.13351105471213,2.517196616950776
3.8,2.3352686341129507,2.1389584260012353,2.51770233880922
3.9,2.3380931930678117,2.144354726080857,2.5181440346392963
4,2.3408813791704217,2.1496999549509974,2.5185380035163325
4.1,2.3436331924207807,2.155007891233904,2.518909548019134
4.2,2.3463486328188887,2.1603286940322675,2.5192586681476996
4.3,2.3490277003647457,2.1655980016869343,2.5195853639020296
4.4,2.351670395058351,2.1708158141979035,2.520011780735561
4.5,2.3542767168997054,2.1758370728807854,2.520550768522905
4.6,2.356846665888808,2.180675729302008,2.5210161636693744
4.7,2.35938024202566,2.185648101246011,2.5215217052999304
4.8,2.3618774453102613,2.190519273807053,2.5220479158409495
4.9,2.364338275742611,2.1951381326853037,2.5225271667629725
5,2.3667627333227097,2.199709407669089,2.5229783471516622
5.1,2.3691508180505565,2.204239585990214,2.5234045914304506
5.2,2.371502529926153,2.208720575847039,2.523802650287118
5.3,2.3738178689494984,2.2131523772395623,2.524053432067445
5.4,2.3760968351205922,2.2175349901677848,2.5242097402348707
5.5,2.3783394284394346,2.2218684146317065,2.5244416385088178
5.6,2.3805456489060264,2.2261526506313265,2.524637503258478
5.7,2.3827154965203663,2.2304483532861643,2.5248764822091507
5.8,2.384848971282456,2.2347745502965175,2.525267369299965
5.9,2.386946073192294,2.2391417154397075,2.5256318222595704
6,2.389006802249881,2.2435175841984254,2.525968920232551
6.1,2.391031158455217,2.2476409618799407,2.5262668554088155
6.2,2.3930191418083013,2.2515365783057413,2.5265384813954133
6.3,2.394970752309135,2.2553842670719684,2.5266716190375647
6.4,2.3968859899577177,2.2591840281786233,2.5266681286996375
6.5,2.398764854754048,2.262935861625704,2.526461881483299
6.6,2.400607346698128,2.266639767413212,2.5262253701751076
6.7,2.402413465789957,2.2704376526451604,2.5259541363935534
6.8,2.404183212029535,2.2745093199065636,2.5256561175890884
6.9,2.405916585416861,2.278527937260124,2.525335303475341
7,2.4076135859519363,2.2824935047058434,2.5249916940523134
7.1,2.4092742136347605,2.2863700190858247,2.5246252893200047
7.2,2.4108984684653336,2.2896297349139614,2.5242514487590357
7.3,2.412486350443656,2.292993896274448,2.523997864357492
7.4,2.414037859569726,2.29671218238967,2.5235075859018714
7.5,2.4155529958435453,2.300243180266717,2.5229000534594697
7.6,2.4170317592651136,2.303914859182698,2.5223664898151332
7.7,2.418474149834431,2.3074330173588082,2.522123769303679
7.8,2.419880167551497,2.3109004729877105,2.5219470340747634
7.9,2.4212498124163124,2.314297120994799,2.521710755312347
8,2.422583084428876,2.3175052984035287,2.5214142178446113
8.1,2.423879983589188,2.3205441235184567,2.5208027700341167
8.2,2.4251405098972496,2.3238872901475154,2.5202670234604465
8.3,2.42636466335306,2.3271114351803055,2.5199211931188135
8.4,2.4275524439566194,2.330024220061877,2.5194409395004724
8.5,2.428703851707927,2.3327473182091047,2.5190031246768703
8.6,2.4298188866069834,2.335570887817134,2.518583888047524
8.7,2.430897548653789,2.338547151958198,2.518362500726229
8.8,2.431939837848344,2.3414056943956973,2.5181595477415475
8.9,2.432945754190647,2.3438152048344305,2.5179245329299382
9,2.4339152976806986,2.3461534981275065,2.517683902494076
9.1,2.4348484683184997,2.3484569497692096,2.5172981951910662
9.2,2.4357452661040497,2.350803696120583,2.5168068982773937
9.3,2.436605691037349,2.3532254279357048,2.5161707809732556
9.4,2.437429743118396,2.3555265334791535,2.5156506724572774
9.5,2.4382174223471917,2.3576880377486082,2.5150894408740756
9.6,2.438968728723737,2.3599381210344053,2.514532377050732
9.7,2.439683662248031,2.3619881450192626,2.5138197309382733
9.8,2.440362222920074,2.3639844692254726,2.5132593302779456
9.9,2.4410044107398656,2.3662251887016756,2.512623926179014
10,2.4416102257074055,2.3681776662368867,2.511891814327182
10.1,2.4421796678226952,2.369820131469769,2.5114087585560236
10.2,2.442712737085734,2.37142180076702,2.5107418489425952
10.3,2.443209433496521,2.3731751663283065,2.509922180569814
10.4,2.4436697570550567,2.3748935388104346,2.509258986888497
10.5,2.4440937077613407,2.3763410528927036,2.5085494322315656
10.6,2.4444812856153746,2.3777315148891875,2.5077100753112203
10.7,2.4448324906171566,2.379153293061994,2.506849068729262
10.8,2.4451473227666884,2.3812297886316305,2.505909141615418
10.9,2.4454257820639684,2.383054513675225,2.5049836305106252
11,2.445667868508997,2.3848624871382285,2.504182470523363
11.1,2.445873582101775,2.386333674003139,2.503053508622499
11.2,2.4460429228423015,2.387247403609356,2.502096203978033
11.3,2.4461758907305775,2.3883181230508246,2.501224112905229
11.4,2.4462724857666016,2.389585790379349,2.5001717820580653
11.5,2.4463327079503747,2.390614104082955,2.499081375036852
11.6,2.446356557281896,2.392052066340235,2.498091649638762
11.7,2.446344033761167,2.3933569109487003,2.4971332150395034
11.8,2.446295137388187,2.394387599773814,2.4961679085330486
11.9,2.4462098681629554,2.3953558843609155,2.495351385076736
12,2.4460882260854726,2.3961531926786224,2.494626357075787
12.1,2.445930211155738,2.396855833934845,2.4933683902213324
12.2,2.445735823373753,2.397764342801733,2.4920934553560077
12.3,2.4455050627395174,2.3987068090025407,2.4910246640787497
12.4,2.4452379292530306,2.3990839388839156,2.489708232826101
12.5,2.444934422914291,2.3996146711851774,2.4885160978485574
12.6,2.4445945437233014,2.4000874717991216,2.487113412076432
12.7,2.4442182916800608,2.400775613955887,2.4858566317685087
12.8,2.443805666784569,2.401405980108674,2.484781303544924
12.9,2.4433566690368256,2.4017952187307623,2.483566592967043
13,2.442871298436831,2.4017954717282466,2.4825142236385824
13.1,2.4423495549845855,2.401896249015742,2.4813739155648564
13.2,2.441791438680089,2.402096236611861,2.4801877277709847
13.3,2.441196949523342,2.4023393594388667,2.4788349868100568
13.4,2.440566087514343,2.4025533640325984,2.4777969952647823
13.5,2.4398988526530925,2.402707777849381,2.4767870275909454
13.6,2.439195244939591,2.4027970002820185,2.475681507175529
13.7,2.4384552643738386,2.402716393799771,2.4743837549340473
13.8,2.437678910955835,2.4026260872100975,2.473140520273139
13.9,2.436866184685581,2.402552409378564,2.471798471596359
14,2.436017085563074,2.4020000294899537,2.4702688410336804
14.1,2.435131613588317,2.401150185714923,2.4693845413911433
14.2,2.434209768761309,2.400617400503275,2.468119908209922
14.3,2.4332515510820496,2.400093486586207,2.466636927705113
14.4,2.4322569605505393,2.399458277644905,2.4655431324557044
14.5,2.431225997166777,2.3987634303837444,2.4645247825391587
14.6,2.4301586609307644,2.397952526397738,2.463232312220425
14.7,2.4290549518424998,2.3969464852915476,2.4619218989124056
14.8,2.4279148699019855,2.3964691257540167,2.460625037974223
14.9,2.426738415109219,2.3956585975887785,2.4590070240219117
15,2.425525587464201,2.394904984688586,2.4576572879888845
15.1,2.4242763869669326,2.3939440436439363,2.4560664870442017
15.2,2.4229908136174125,2.3928366848191542,2.454588656381631
15.3,2.421668867415642,2.3915305439864545,2.4528886468758504
15.4,2.4203105483616194,2.390283237684895,2.4512296824244038
15.5,2.418915856455346,2.389019075068076,2.4497530750753067
15.6,2.4174847916968214,2.3879874954722418,2.4480935028563193
15.7,2.416017354086046,2.386708747396953,2.446382815497608
15.8,2.4145135436230194,2.385339890989228,2.444645245300867
15.9,2.412973360307741,2.383843636498743,2.4430407435889583
16,2.411396804140212,2.38229695504502,2.4415725949012526
16.1,2.4097838751204312,2.38077575005291,2.4397799547342274
16.2,2.4081345732484003,2.3792992130895083,2.4378960969714343
16.3,2.4064488985241175,2.3779371882240317,2.4359371524666615
16.4,2.404726850947584,2.376279505765813,2.4339381899888535
16.5,2.402968430518799,2.374688296004167,2.432063251713908
16.6,2.401173637237763,2.372709829079364,2.4298918266621605
16.7,2.3993424711044753,2.3709895903040517,2.427912936679847
16.8,2.3974749321189375,2.3691307849391334,2.4259074448611737
16.9,2.3955710202811478,2.367294451974081,2.423848475853479
17,2.393630735591106,2.3652623806101545,2.4219698543890873
17.1,2.391654078048815,2.363202699877223,2.419806251669252
17.2,2.3896410476542718,2.361208463929752,2.417666786274015
17.3,2.3875916444074776,2.3591488515657026,2.4154833163091345
17.4,2.385505868308432,2.3569889461035247,2.413550498841339
17.5,2.3833837193571354,2.354909478340571,2.411751005363234
17.6,2.3812251975535874,2.3527349255674372,2.4097366294913547
17.7,2.379030302897789,2.350588369344522,2.407652928177428
17.8,2.3767990353897392,2.348372977971249,2.4055983110378847
17.9,2.3745313950294378,2.3459820031813416,2.4034654940543976
18,2.3722273818168853,2.343513154650614,2.401003884536102
18.1,2.369886995752082,2.3408983395746583,2.398953718634501
18.2,2.3675102368350274,2.3385825913466713,2.3968151171708816
18.3,2.3650971050657215,2.3360517104164513,2.3945679436719716
18.4,2.3626476004441646,2.3333674586921678,2.392237179725603
18.5,2.3601617229703558,2.3308701955609723,2.390134481077303
18.6,2.357639472644297,2.3282962486560512,2.387789788960327
18.7,2.3550808494659865,2.3254761087789824,2.3853819524732813
18.8,2.3524858534354247,2.3227669849715857,2.3830725152607783
18.9,2.3498544845526124,2.319877938990932,2.380385502517001
19,2.3471867428175477,2.317095858455943,2.3778041705106174
19.1,2.344482628230233,2.314385551090414,2.3752721227918823
19.2,2.3417421407906662,2.3116287305932577,2.372659294865186
19.3,2.338965280498849,2.3087766793134215,2.3698409788740067
19.4,2.3361520473547808,2.3058156201179063,2.366966014361327
19.5,2.3333024413584607,2.3028294462552283,2.364201994436102
19.6,2.3304164625098895,2.29989136037352,2.361252230405257
19.7,2.3274941108090674,2.2969116515193115,2.3585604869207195
19.8,2.3245353862559948,2.2940605050971348,2.3557497798628333
19.9,2.32154028885067,2.291089451118147,2.3528659306947146
20,2.318508818593094,2.287917699780203,2.3498915731406553
20.1,2.3154409754832677,2.2846871956174892,2.3468621756807764
20.2,2.31233675952119,2.28147424275242,2.34386855188849
20.3,2.3091961707068602,2.278236287336042,2.3406169878002725
20.4,2.306019209040281,2.275119221883439,2.3374342821595446
20.5,2.3028058745214492,2.271848235271716,2.33427968485078
20.6,2.299556167150367,2.2684447390399773,2.3310978595549487
20.7,2.296270086927033,2.2650545778521636,2.3280030850826314
20.8,2.292947633851448,2.261526531345213,2.3246814866638204
20.9,2.2895888079236126,2.2580247940399465,2.3214020156489106
21,2.286193609143525,2.2546536024140864,2.3182048133791593
21.1,2.282762037511187,2.25113514893767,2.3147215834890393
21.2,2.279294093026597,2.2476883195484363,2.3111025616178296
21.3,2.2757897756897565,2.244134345440518,2.307669778715138
21.4,2.2722490855006647,2.2404811955010375,2.3042041528270136
21.5,2.2686720224593215,2.2368145815901848,2.300684886369462
21.6,2.2650585865657273,2.233258824907441,2.2970452042800815
21.7,2.261408777819882,2.229652111523385,2.2933852224939324
21.8,2.257722596221786,2.225982408137971,2.289822818578041
21.9,2.2540000417714383,2.2222950934579666,2.286133150742728
22,2.250241114468839,2.218603166819076,2.2821592153788024
22.1,2.246445814313989,2.2148546226048547,2.278204739638686
22.2,2.2426141413068885,2.2110796029946562,2.2743497452724992
22.3,2.238746095447536,2.207270800848002,2.270585886375735
22.4,2.2348416767359325,2.203312079765994,2.2666930753913066
22.5,2.230900885172078,2.1993692794068354,2.262873813181079
22.6,2.2269237207559724,2.19542504202726,2.2590345544184047
22.7,2.222910183487615,2.191394384515802,2.25510208031716
22.8,2.218860273367007,2.1873095599666907,2.2511569534797333
22.9,2.214773990394148,2.1831345199560235,2.2471309237885433
23,2.2106513345690373,2.1789957662895865,2.24278088504719
23.1,2.2064923058916763,2.1748165696262305,2.238567230185786
23.2,2.202296904362063,2.170524947576112,2.2344581826179795
23.3,2.1980651299801997,2.1663455557204534,2.2302784369728226
23.4,2.1937969827460844,2.1620655765721697,2.2258982863904597
23.5,2.189492462659718,2.1577947804462525,2.221499050805272
23.6,2.185151569721101,2.153594297866025,2.217025955645329
23.7,2.1807743039302325,2.149378595199696,2.212516795306324
23.8,2.176360665287113,2.145165961802489,2.2080973041187892
23.9,2.171910653791742,2.140728544641491,2.2036016540168846
24,2.16742426944412,2.136466096828274,2.1990066443591827
24.1,2.1629015122442468,2.1320561582856588,2.1942736164897343
24.2,2.1583423821921226,2.127292172805827,2.189514886148834
24.3,2.1537468792877466,2.1227141226692208,2.184606557554323
24.4,2.1491150035311204,2.1182666720864707,2.179732850060078
24.5,2.1444467549222423,2.113701764589994,2.1750198771883493
24.6,2.1397421334611133,2.1089380776684057,2.17037339035077
24.7,2.1350011391477333,2.1042439048935844,2.165601691450458
24.8,2.1302237719821022,2.0995065477067403,2.160776413579195
24.9,2.1254100319642197,2.094850274168403,2.1560058915679363
25,2.120559919094086,2.090076294744813,2.1513647935684146
25.1,2.1156734333717013,2.085408596063151,2.146743217063139
25.2,2.1107505747970654,2.080472613863484,2.1419657331401525
25.3,2.105791343370178,2.0755762717668125,2.1372450342085507
25.4,2.10079573909104,2.0706911578910834,2.132337645231858
25.5,2.0957637619596503,2.0656565513286327,2.1272744744732206
25.6,2.0906954119760104,2.0605574411511847,2.122300551163986
25.7,2.085590689140118,2.055513294666542,2.117078743481903
25.8,2.0804495934519753,2.0503295524256897,2.1119151126996356
25.9,2.0752721249115815,2.044973176263749,2.106682041970764
26,2.070058283518936,2.0397266427134353,2.101530411450702
26.1,2.0648080692740396,2.0343768765293015,2.0963794628804946
26.2,2.0595214821768923,2.0288089949173376,2.0912434607600865
26.3,2.054198522227493,2.0232950475588214,2.085969284278954
26.4,2.048839189425844,2.0176932530784217,2.0807426003559963
26.5,2.0434434837719424,2.0120923987545054,2.075536263718505
26.6,2.0380114052657903,2.0065044261004763,2.0704819065790443
26.7,2.032542953907387,2.000788681459685,2.065100765630251
26.8,2.0270381296967326,1.9951095476935077,2.0599127051336206
26.9,2.021496932633827,1.989244037861054,2.0545673247174756
27,2.01591936271867,1.9835658119419992,2.048772199071112
27.1,2.010305419951262,1.9775689943986985,2.043484953988005
27.2,2.004655104331603,1.971500350311464,2.038302703767907
27.3,1.9989684158596925,1.9653197347745877,2.0330876954720836
27.4,1.9932453545355315,1.9592584266939244,2.027703544526405
27.5,1.9874859203591184,1.953117737768533,2.0223631354854996
27.6,1.9816901133304547,1.9469620534298002,2.016889182125854
27.7,1.9758579334495399,1.940774500393582,2.0112992701240127
27.8,1.9699893807163738,1.93458029364869,2.0057865133688186
27.9,1.9640844551309566,1.9283086990499005,2.0003180189751553
28,1.9581431566932879,1.9220420876164823,1.9947469751293343
28.1,1.9521654854033685,1.915922825206267,1.9891029694918965
28.2,1.9461514412611978,1.9094811546866257,1.983483272444071
28.3,1.940101024266776,1.9029527739276546,1.9775901540594676
28.4,1.934014234420103,1.8965281592699208,1.9716586224389863
28.5,1.9278910717211784,1.8900088147793084,1.9661888638618996
28.6,1.921731536170003,1.883160867212005,1.9604446244442904
28.7,1.9155356277665767,1.876467389214947,1.954879390775031
28.8,1.9093033465108988,1.8697008883339827,1.9491241432259656
28.9,1.9030346924029702,1.8631436559384404,1.943459285294276
29,1.8967296654427899,1.8564332292998702,1.9378375194408557
29.1,1.8903882656303588,1.8494360727176753,1.9321466346544418
29.2,1.8840104929656765,1.8422673217536363,1.9264795460911635
29.3,1.8775963474487427,1.8353985206451753,1.9207492319529818
29.4,1.8711458290795586,1.8281573403211926,1.9150474332365217
29.5,1.8646589378581222,1.8211151537207435,1.9092172286598545
29.6,1.8581356737844354,1.814005136598529,1.90359456276782
29.7,1.8515760368584973,1.8067825177602241,1.8977704044298247
29.8,1.8449800270803078,1.7995147803196874,1.8920229882967043
29.9,1.8383476444498674,1.7920116803483614,1.885927732754297
30,1.8316788889671756,1.7847418066957563,1.8800982109018647
30.1,1.824973760632233,1.777376041913818,1.8742148279031712
30.2,1.8182322594450389,1.7696109323999245,1.8683541275138422
30.3,1.811454385405594,1.7616216472706885,1.862332092406557
30.4,1.8046401385138977,1.753613374250493,1.8562307094421908
30.5,1.79778951876995,1.7455618983215793,1.8503415048860623
30.6,1.7909025261737517,1.7375030710928634,1.8445340589392307
30.7,1.7839791607253017,1.7294479815539248,1.8384409844839662
30.8,1.7770194224246008,1.721419715053424,1.8325569294733528
30.9,1.770023311271649,1.7132008797230363,1.8265258455174105
31,1.7629908272664454,1.705190187761699,1.8203563324328695
31.1,1.7559219704089912,1.6969791380834378,1.8145052497033425
31.2,1.7488167406992854,1.6889040517808076,1.8085350563197666
31.3,1.7416751381373288,1.680711668844939,1.8027234811497603
31.4,1.7344971627231212,1.6726249870846195,1.7967811743069033
31.5,1.7272828144566617,1.663984097228298,1.7907768274722584
31.6,1.7200320933379518,1.6552801030050766,1.7846534288215312
31.7,1.7127449993669899,1.6466169079418118,1.7786105775829437
31.8,1.7054215325437778,1.6379193610443632,1.7725436701483357
31.9,1.6980616928683143,1.6296234307120407,1.7666077272636296
32,1.690665480340599,1.6209758074273835,1.7604013449346994
32.1,1.6832328949606334,1.6124371046499144,1.754361471028206
32.2,1.6757639367284158,1.603705279734727,1.748383669584947
32.3,1.6682586056439477,1.5946624618250245,1.7420931582471013
32.4,1.6607169017072283,1.5857035701580875,1.7358083838521439
32.5,1.6531388249182575,1.5767320924329384,1.7299060805441902
32.6,1.6455243752770357,1.567696967295271,1.7235233750050303
32.7,1.6378735527835624,1.5586997549263821,1.7172519878522174
32.8,1.6301863574378386,1.549633619591007,1.7108228841405657
32.9,1.6224627892398635,1.5406565845979436,1.7043681376763038
33,1.6147028481896366,1.5316130539803214,1.6978674497772626
