temp,mean,conf_lower,conf_upper
0,-0.03216858312237364,-0.053354562993400675,-0.014225770375465217
0.1,-0.03188938903660171,-0.053007365486505725,-0.013992069321746368
0.2,-0.03160750136114626,-0.05265723771865947,-0.013755888471089897
0.3,-0.03132289839525643,-0.05230416030764827,-0.013517205116263056
0.4,-0.031035558345117453,-0.05194811383996932,-0.013276000390819257
0.5,-0.03074545932531242,-0.05158907887301503,-0.013032269207466994
0.6,-0.03045257936035667,-0.0512270359373262,-0.012785966511951739
0.7,-0.030156896386274556,-0.050861965538898844,-0.01253709506639656
0.8,-0.029858388252249013,-0.0504938481615546,-0.012291164255519649
0.9,-0.029557032722321408,-0.05012266426937838,-0.012043339431232947
1,-0.029252807477160803,-0.04974839430920619,-0.011792876574191747
1.1,-0.02894569011589293,-0.04937101871319147,-0.01153960902178244
1.2,-0.028635658157993682,-0.04899051790143108,-0.011279397855910013
1.3,-0.02832268904525509,-0.04860687228465848,-0.01101963889996396
1.4,-0.028006760143811038,-0.048220062267009645,-0.010757178398643085
1.5,-0.027687848746238697,-0.04783006824885132,-0.010492371376516806
1.6,-0.027365932073723676,-0.047436870629686045,-0.010224781126058768
1.7,-0.027040987278308892,-0.04704044981112945,-0.009954382957966223
1.8,-0.026712991445205392,-0.04664568012919316,-0.009681152057270803
1.9,-0.02638192159518643,-0.04625415836488559,-0.009405063484951414
2,-0.02604775468705639,-0.045859342298851,-0.009126092179635538
2.1,-0.02571046762019563,-0.045461211143511746,-0.008844212959373056
2.2,-0.025370037237191945,-0.045059744111376386,-0.008559400523483664
2.3,-0.02502644032655127,-0.044654920418361645,-0.008271629454498133
2.4,-0.024679653625489684,-0.04424671928718406,-0.007980874220158887
2.5,-0.02432965382281599,-0.04383511995084688,-0.007675405373493144
2.6,-0.023976417561895114,-0.043420101656209006,-0.007366795719576075
2.7,-0.023619921443712333,-0.04300164366764475,-0.0070551223285157
2.8,-0.023260142030018305,-0.042579725270794004,-0.00674036055938923
2.9,-0.022897055846565373,-0.04215432577640163,-0.006422485691271633
3,-0.022530639386459106,-0.04172542452425406,-0.006101472925972078
3.1,-0.022160869113574455,-0.04128628727180334,-0.0057772973908436324
3.2,-0.021787721466102916,-0.04084853157995397,-0.005449934141705574
3.3,-0.021411172860182293,-0.040396180854690406,-0.005119358165860314
3.4,-0.021031199693629044,-0.03994015661232885,-0.00478598666311148
3.5,-0.020647778349797197,-0.03948056325110268,-0.0044494776358577955
3.6,-0.020260885201508982,-0.03901738195807543,-0.004109682466215241
3.7,-0.019870496615131794,-0.03855059399747525,-0.003775178992668351
3.8,-0.0194765889547453,-0.03808018071543712,-0.003443907876604482
3.9,-0.019079138586427125,-0.037606123544852814,-0.003109681858519304
4,-0.018678121882661103,-0.03712782174266243,-0.002772404292838211
4.1,-0.018273515226857884,-0.03664570954744163,-0.002431708210386326
4.2,-0.01786529501799944,-0.03616137158486052,-0.002087566140577009
4.3,-0.0174534376754108,-0.03570006763427696,-0.0017399505461479902
4.4,-0.017037919643652588,-0.035234944559289855,-0.001388833827145903
4.5,-0.016618717397548777,-0.03476598088242193,-0.0010341883250858455
4.6,-0.016017068580577942,-0.034056750991059447,-5.366159027983645e-4
4.7,-0.015409860410002862,-0.033322431006304394,-3.388145747986772e-5
4.8,-0.014797052774495667,-0.032603126713359874,4.740591248202572e-4
4.9,-0.014178605497551733,-0.031864973930380236,9.872501376245908e-4
5,-0.013554478343106136,-0.03111559012120389,0.0015057360497507093
5.1,-0.012924631021310085,-0.030360162243803706,0.002029561500866745
5.2,-0.012289023194476278,-0.02959787095796185,0.0025587712968649368
5.3,-0.011647614483198898,-0.02882892425430874,0.0030932754255630687
5.4,-0.011000364472641133,-0.028053835409150907,0.003647943047348971
5.5,-0.01034723271901189,-0.027272570324554237,0.00420810946182395
5.6,-0.009688178756208699,-0.026490696412044257,0.004764859780811788
5.7,-0.009023162102660798,-0.0257061176361301,0.0053323359930832395
5.8,-0.008352142268362617,-0.024928713566457605,0.005907846364802951
5.9,-0.007675078762083787,-0.024125155943294514,0.0064886120823953106
6,-0.006991931098795423,-0.023330112771768823,0.007075872043729904
6.1,-0.006302658807286143,-0.022528610521775943,0.007673504795970027
6.2,-0.005607221437991139,-0.021720613340609186,0.008283386847476102
6.3,-0.004905578571025193,-0.020900193184975192,0.008904969531287396
6.4,-0.004197689824436968,-0.020070479198039105,0.009532881904888603
6.5,-0.003483514862670456,-0.019232878506131076,0.010158064494873144
6.6,-0.0027630134052588073,-0.018388293458030457,0.01078465526995354
6.7,-0.002036145235743303,-0.017537033128335395,0.011422869184700866
6.8,-0.0013028702108205947,-0.016679063454490495,0.012049096133672794
6.9,-5.631482697331935e-4,-0.015814350576884642,0.012685699820036294
7,1.8306055610323169e-4,-0.014942860849406572,0.013332277306593424
7.1,9.357961332348563e-4,-0.0140645608502271,0.013984158953213522
7.2,0.00169509821603403,-0.013179261144729011,0.014645452511924405
7.3,0.0024610064363257966,-0.012277581558198795,0.015329515901072729
7.4,0.0032335602927436313,-0.011356100509313856,0.01601582339481591
7.5,0.0040127991398186125,-0.01042760202012362,0.016694439584251354
7.6,0.00479876217681191,-0.009492346365719015,0.017379396911383675
7.7,0.005591488436244962,-0.008553110961611845,0.018069475093917483
7.8,0.006391016772169855,-0.0076349024840500004,0.01876573698876222
7.9,0.007197385848139504,-0.00670950179482014,0.019468476558345556
8,0.008010634124892724,-0.005767046272683887,0.020177736714213343
8.1,0.008830799847731108,-0.0048180593181449995,0.02089324685238363
8.2,0.009657921033600358,-0.0038521428635137148,0.021607144489012266
8.3,0.010492035457848103,-0.002880537598553161,0.022343234163861626
8.4,0.011333180640677953,-0.0019103845580736682,0.02308163984894899
8.5,0.012181393833275822,-9.345076830759684e-4,0.023828298263619582
8.6,0.013036712003600293,3.683266290836415e-5,0.024594827873417123
8.7,0.013899171821851575,0.001030819139235934,0.02536852340924488
8.8,0.01476880964557753,0.0020285889179725985,0.02614609596417315
8.9,0.01564566150444363,0.0030392809144873245,0.02691281076963677
9,0.01652976308465587,0.004046064826228029,0.02768661321227596
9.1,0.017421149713001516,0.005054390895705946,0.028505276556834925
9.2,0.018319856340534624,0.006083286603772026,0.029317097563686976
9.3,0.01922591752587416,0.007105124317245835,0.030142845442979314
9.4,0.02013936741812944,0.008140985763289123,0.03095253616571237
9.5,0.02106023973942145,0.009159656600203916,0.03179774863776422
9.6,0.0219885677670259,0.010229543813728093,0.032654905562867785
9.7,0.02292438431509075,0.01126680620020486,0.033496339910740594
9.8,0.02386772171593493,0.012319194591553787,0.034354825805093095
9.9,0.024818611800955737,0.013395664808693811,0.03520754135516974
10,0.025777085881072914,0.014466631999741155,0.036064202970662436
10.1,0.026743174726754193,0.015533563413775573,0.03693873568437764
10.2,0.02771690854759129,0.016633686314677338,0.03782582066075102
10.3,0.028698316971411286,0.017746914654188324,0.03871348384497899
10.4,0.02968742902294058,0.018869641055918897,0.03960189508184618
10.5,0.03068427310197791,0.019990974849364795,0.04049237969236867
10.6,0.031688876961117274,0.021119909703136982,0.041398389856867855
10.7,0.03270126768293996,0.022241911863492753,0.042318478336840125
10.8,0.03372147165672984,0.023378227680845395,0.04325838021160318
10.9,0.03474951455469327,0.024501921512936363,0.04420581304018066
11,0.03578542130763257,0.025625008976327444,0.045160380985688475
11.1,0.036829216080112304,0.026740311270628547,0.04612271759858316
11.2,0.03788092224507983,0.027879905954008737,0.047093672455137216
11.3,0.038940562357938024,0.02903453210204688,0.048071718290879896
11.4,0.04000815813005448,0.030169368504208725,0.04904978144323399
11.5,0.04108373040172669,0.03131726538582286,0.05004022034140263
11.6,0.04216729911454281,0.03249760284778172,0.051053106035271675
11.7,0.04325888328315802,0.03368625171057097,0.05207940876575507
11.8,0.044358500966483805,0.03488100721997248,0.0531155864146579
11.9,0.04546616923824859,0.036065299859048966,0.054165471595707074
12,0.04658190415694047,0.03726781713487659,0.055210586740622514
12.1,0.047705720735139956,0.038487661050257964,0.05625687440664667
12.2,0.04883763290816395,0.039710407229704474,0.05732578139569368
12.3,0.049977653502081776,0.040948421266230384,0.0583956293399106
12.4,0.05112579420106461,0.04218663505474901,0.059482789856331174
12.5,0.0522820655140151,0.04343210229067734,0.0605847013951965
12.6,0.05344647674056385,0.04469961114997544,0.06168293862439572
12.7,0.054619035936297966,0.045976918500614014,0.06278185463314029
12.8,0.05579974987730779,0.04725105568706375,0.06388191358663346
12.9,0.056988624023991685,0.048513565529369015,0.06499450774246085
13,0.05818566248410045,0.04981800555069073,0.06611654352714522
13.1,0.05939086797503529,0.05112459231500398,0.06722436791109473
13.2,0.06060424178537788,0.052421871986165935,0.06835445316758776
13.3,0.06182578373560671,0.05369774819220949,0.06949217933568143
13.4,0.06305549213804335,0.0549856913851119,0.07064510147637804
13.5,0.06429336375595113,0.05628421859292324,0.07179411556284662
13.6,0.06553939376182522,0.05759723647367145,0.07295326968792676
13.7,0.06679357569482686,0.0589381221716061,0.07411721699242152
13.8,0.0680559014173519,0.060271968972216046,0.07530263282100381
13.9,0.0693263610707216,0.0616290415914014,0.07649125887378085
14,0.07060494302999537,0.06298503138710922,0.0776861794465299
14.1,0.07189163385785219,0.0643635812172776,0.07888909614328421
14.2,0.07318641825755595,0.0657425669893226,0.0800999993429303
14.3,0.0744892790249852,0.06712283814034452,0.08132469380737085
14.4,0.07580019699969448,0.06852133125205004,0.0825807810163993
14.5,0.07711915101498718,0.06991117410454736,0.08383650447861134
14.6,0.07844611784702976,0.0713102749012134,0.08510249488591375
14.7,0.07978107216292402,0.07272089351794786,0.0863819190925189
14.8,0.08112398646773739,0.07412123209595967,0.08767696053021684
14.9,0.08247483105053904,0.0755584236917758,0.08898054830695187
15,0.08383357392930751,0.07699261497840701,0.09028442622573954
15.1,0.08520018079479402,0.07843503300322537,0.09159855938607447
15.2,0.08657461495325142,0.07985443585809393,0.09290815209159235
15.3,0.08795683726806686,0.08129654099900638,0.09424161641906753
15.4,0.089346806100217,0.08274708754046078,0.09558139429648038
15.5,0.090744477247591,0.0841839160982723,0.09692338986340496
15.6,0.09214980388310262,0.08566280896213894,0.09825577516361227
15.7,0.09356273649160746,0.08715585571157998,0.09963382054630762
15.8,0.09498322280557653,0.0886380157004163,0.10099159515008789
15.9,0.09641120773954076,0.09012652133613791,0.1023614176250297
16,0.09784663332324978,0.09162781702564624,0.10375162878681042
16.1,0.09928943863354728,0.09312034817902341,0.10514086234627154
16.2,0.10073955972490217,0.09461450095917051,0.10653743117852577
16.3,0.10219692955863718,0.09612998365876371,0.10796924906202619
16.4,0.10366147793075414,0.09768350831946496,0.10939097617223253
16.5,0.10513313139839325,0.09921485996842155,0.11081044091921793
16.6,0.10661181320489305,0.10075999000868585,0.11222133449126523
16.7,0.1080974432033755,0.10231623708841049,0.1136383959499635
16.8,0.10958993777889453,0.10386229842405482,0.11507280470504713
16.9,0.11108920976909104,0.10542904101214781,0.11651480830882019
17,0.11259516838332734,0.10701074433256236,0.11796655681943648
17.1,0.11410771912028023,0.10858564070677496,0.11942064190278733
17.2,0.11562676368399166,0.11019550773452656,0.12086798150602146
17.3,0.1171521998982768,0.11178895747513132,0.12233673465210138
17.4,0.11868392161955194,0.11339836648750082,0.12381235896442702
17.5,0.12022181864798381,0.1150229343561441,0.1252975763277423
17.6,0.12176577663698512,0.11663582809341344,0.1267975138795739
17.7,0.12331567700094831,0.11827519570109675,0.1282948420690651
17.8,0.1248713968213207,0.119887545819054,0.129788877822144
17.9,0.12643280875083535,0.12153120671149516,0.13127086096863577
18,0.12799978091597924,0.12315016384091057,0.1327580240755939
18.1,0.12957217681763816,0.12478140617500569,0.1342877768681836
18.2,0.13114985522982342,0.12642598280253226,0.13580817067291373
18.3,0.13273267009657702,0.12806864791351172,0.13736878878607173
18.4,0.13432047042691125,0.12970452054774398,0.13889537830767537
18.5,0.1359131001877712,0.13134309577113157,0.14046513594854915
18.6,0.1375103981950379,0.13302045774765225,0.14202755961037794
18.7,0.13911219800248747,0.1346635217455763,0.14356966071741922
18.8,0.14071832778862953,0.13632367650645144,0.1451266650243364
18.9,0.14232861024158644,0.13800004073537164,0.14668641991387832
19,0.14394286244167792,0.13966820775653435,0.148229059445491
19.1,0.14556089574191483,0.14132953129335948,0.14980301434335933
19.2,0.14718251564628365,0.14301928809442088,0.15137120770350299
19.3,0.14880752168576833,0.1447156391732169,0.15293703873214887
19.4,0.15043570729204642,0.14641857395628394,0.15449854410964015
19.5,0.15206685966894745,0.14811223303982032,0.1560563188607964
19.6,0.15370075966144842,0.14980884837522468,0.1576169817414657
19.7,0.1553371816223515,0.1515041688247953,0.159196316195716
19.8,0.15697589327641187,0.15320701190225633,0.1607845452194832
19.9,0.15861665558206922,0.15488661757432548,0.1623814809243541
20,0.16025922259062214,0.15657221123408263,0.16397417697276773
20.1,0.16190334130275447,0.15824877075873406,0.16557769009149928
20.2,0.16354875152258624,0.15994688972578103,0.1671754253303016
20.3,0.16519518570890607,0.16164246813380595,0.168790979909833
20.4,0.16684236882376996,0.1633002581498461,0.1704177556180732
20.5,0.16849001817835713,0.16496951010235336,0.17200299308851486
20.6,0.17013784327599818,0.16667230403997563,0.17361337354885018
20.7,0.1717855456523501,0.16837245006501325,0.17523768642352733
20.8,0.17343281871268462,0.17007657772998283,0.17684305148312113
20.9,0.17507934756618254,0.1717472554062811,0.17845891463660793
21,0.17672480885733438,0.1734277720070357,0.18005218709155446
21.1,0.17836887059415601,0.17512632672796222,0.18166721028374822
21.2,0.18001119197342713,0.176824910028613,0.18326562077925096
21.3,0.18165142320269495,0.17850480729894086,0.18487402215019946
21.4,0.18328920531907605,0.18016259190701597,0.1864798129753753
21.5,0.18492417000486966,0.18180727681377812,0.18808850175507064
21.6,0.18655593939974074,0.18346746141646475,0.18970405387121714
21.7,0.18818412590963646,0.18515589225435283,0.19129551117886692
21.8,0.18980833201222796,0.1868098421752569,0.19289278382853414
21.9,0.19142815005881914,0.18846100336417865,0.1944904076884114
22,0.19304316207280375,0.19012590086843906,0.19608164073101483
22.1,0.19465293954446877,0.19176867154783706,0.19763974236987844
22.2,0.19625704322206278,0.19337219139908546,0.19922591029682646
22.3,0.19785502289928597,0.19498857663520172,0.20080905264032797
22.4,0.19944641719886597,0.19658143552847362,0.20240037777573142
22.5,0.20103075335230552,0.19818674336940992,0.20395146102819126
22.6,0.20260754697577738,0.19979089278572382,0.2055138709573798
22.7,0.2041763018419121,0.20136735736441153,0.20705100504539176
22.8,0.20573650964763185,0.20295603882773347,0.20858413368296347
22.9,0.2072876497778558,0.20453811228723914,0.21009453498693803
23,0.20882918906495568,0.20608107076550972,0.211601177679302
23.1,0.21036058154402176,0.20762266809262542,0.21310007712803336
23.2,0.21188126820372083,0.20916620504565836,0.2145897532585388
23.3,0.2133906767328509,0.21068087221794157,0.21609681781942341
23.4,0.21488822126233603,0.21219107067783316,0.21758604414336297
23.5,0.21637330210266842,0.21365722000797077,0.21905704230828027
23.6,0.21784530547681175,0.21514142039738043,0.22054284307160243
23.7,0.2193036032483076,0.21659067837810558,0.22201895057530513
23.8,0.2207475526445964,0.2180272788148646,0.22348427751404001
23.9,0.22217649597556505,0.21948226940732984,0.22491520320301778
24,0.22358976034708117,0.22091003902346038,0.22631819490553493
24.1,0.2249866573694635,0.22231494351460512,0.227707665340883
24.2,0.22636648286094935,0.2236698560998773,0.2290658701923614
24.3,0.22772851654589427,0.22502746297842452,0.23044568474467775
24.4,0.22907202174768165,0.22636245493040802,0.2317816332049369
24.5,0.2303962450762927,0.22765053793293638,0.23311909792315325
24.6,0.23170041611040865,0.22896086164399404,0.23442103440105022
24.7,0.23298374707402686,0.23025765386006408,0.235722064561092
24.8,0.23424543250724322,0.23151560042004923,0.2369995626240795
24.9,0.2354846489315457,0.23275562754663626,0.23826187115186445
25,0.2367005545091428,0.23394626245610112,0.2395054836673595
25.1,0.23789228869627205,0.2351178749184054,0.24071432488766986
25.2,0.239058971890801,0.23625196573367402,0.24187771610714257
25.3,0.24019970507333827,0.23737398315382824,0.24304038635577774
25.4,0.24131356944227217,0.23847757712432532,0.24415258988508826
25.5,0.24239962604261162,0.23952475462714795,0.2452627313063017
25.6,0.24345691538821806,0.2405539809433451,0.24633567926589317
25.7,0.24448445707747563,0.24155674894051207,0.24735290867980791
25.8,0.2454812494024748,0.24254343874911238,0.24835730830063119
25.9,0.24644626895132876,0.24351132750828489,0.24932891740357987
26,0.24737847020360998,0.24444501294182025,0.2502521115412097
26.1,0.2482767851189654,0.2453333819527081,0.25117335402036156
26.2,0.24914012271832614,0.24620797733256553,0.2520462383628941
26.3,0.24996736865827823,0.24702729801258744,0.2528735729786533
26.4,0.2507573847977576,0.24782120418829062,0.2536613094351807
26.5,0.2515090087575101,0.24859016532134354,0.2544130926362953
26.6,0.25222105347198936,0.2493263572408222,0.25511820793967194
26.7,0.2528923067333378,0.25000737354981595,0.25581279155149944
26.8,0.2535215307277821,0.2506306868281341,0.2564208979071262
26.9,0.2541074615639201,0.2512192190730403,0.2570223121336588
27,0.25464880879310253,0.2517507733963684,0.25754938834293367
27.1,0.2551442549212937,0.25225542979615334,0.2580379055439706
27.2,0.2555924549128535,0.2526749017109472,0.25850199321352674
27.3,0.2559920356857977,0.25304643655882286,0.2589547313656543
27.4,0.25634159559834063,0.2533464101066475,0.25932694822608154
27.5,0.25663970392648966,0.2536347379863674,0.2596822936118154
27.6,0.2568849003333285,0.2538006607249342,0.25998336101259306
27.7,0.257075694328518,0.25394088209829646,0.26021542263133973
27.8,0.257210564719123,0.254023471570212,0.2603863025015861
27.9,0.25728795905077045,0.25404794167826883,0.2605089083102444
28,0.2573062930394319,0.2540151785538456,0.26062726984234597
28.1,0.25726394999367247,0.25389107222809404,0.2606719087464791
28.2,0.2571592802265628,0.25368569834419136,0.26068433125789525
28.3,0.2569906004584877,0.25343052928067566,0.2606069535337838
28.4,0.25675619320880766,0.2530710830250893,0.26049154038526706
28.5,0.2564543061780811,0.25259298292463883,0.2603294755906516
28.6,0.25608315161909384,0.2520378122325426,0.26008329417635917
28.7,0.25564090569791037,0.2514750138389542,0.2598377341898
28.8,0.25512570784346816,0.25076965019829617,0.25947281041395037
28.9,0.25453566008660405,0.24994601329061722,0.25909422951456584
29,0.25386882638788616,0.24906521563273892,0.2586267326255315
29.1,0.2531232319536934,0.24811373740926435,0.25808893811470435
29.2,0.25229686254143263,0.24705930626672856,0.2574698928333733
29.3,0.2513876637521169,0.2459324174354923,0.2567824164253393
29.4,0.25039354031195354,0.2446781778613484,0.2560382471072585
29.5,0.24931235534130397,0.243344321873069,0.2552168491464636
29.6,0.2481419296112713,0.24191462020819496,0.2543511852232412
29.7,0.24688004078819797,0.2403688105754959,0.2534472596767113
29.8,0.24552442266491187,0.23873013643148316,0.2524433332003469
29.9,0.2440727643794685,0.2369680475315358,0.25132043795794523
30,0.2425227096207661,0.2350920428528797,0.25008611340693987
30.1,0.24087185582037246,0.23312230746749862,0.24885332706895125
30.2,0.23911775333146618,0.2309787670544766,0.2474780046540273
30.3,0.2372579045933219,0.22875985330285467,0.24604878339582067
30.4,0.23528976328247114,0.22639723650940394,0.2444505839236174
