temp,mean,conf_lower,conf_upper
0,2.4098484002479346,2.2085087244917236,2.602446234130582
0.1,2.4123110629560776,2.2120390750037493,2.604008792475973
0.2,2.414751148497312,2.2155410737812558,2.605553199342093
0.3,2.4171686568716386,2.218997359898104,2.607079454728942
0.4,2.4195635880790567,2.2223178628258675,2.6085875586365197
0.5,2.4219359421195668,2.225611919735568,2.610077511064826
0.6,2.4242857189931684,2.2288809698613106,2.611549312013861
0.7,2.4266129186998615,2.2321228085203595,2.613002961483625
0.8,2.428917541239646,2.235337435712717,2.6144384594741172
0.9,2.4311995866125224,2.2385248514383806,2.6158558059853387
1,2.433459054818491,2.241685055697352,2.6172550010172886
1.1,2.435695945857551,2.2448548202825354,2.618579419717451
1.2,2.437910259729702,2.248030083208201,2.6198656947639387
1.3,2.4401019964349455,2.2511773774146944,2.621134409904458
1.4,2.4422711559732804,2.254296702902015,2.6223855651390084
1.5,2.444417738344707,2.2573880596701636,2.62361916046759
1.6,2.4465417435492256,2.26045144771914,2.624835195890203
1.7,2.4486431715868355,2.263486867048944,2.626033671406848
1.8,2.4507220224575375,2.266494317659576,2.6272139929403346
1.9,2.4527782961613305,2.2694737995510357,2.628369026651777
2,2.4548119926982155,2.272425312723323,2.6295065621687996
2.1,2.459737318114502,2.2793322491227688,2.6324020471054523
2.2,2.4646174891969714,2.286185196934215,2.635262998098459
2.3,2.4694525059456245,2.292984540358059,2.6380894151478196
2.4,2.4742423683604606,2.2997632674999258,2.640881298253534
2.5,2.47898707644148,2.306508282491216,2.643638647415602
2.6,2.483686630188683,2.313197523044453,2.6463272698951057
2.7,2.4883410296020694,2.3198358702871245,2.649059124443397
2.8,2.4929502746816397,2.326412379817538,2.6518094302006743
2.9,2.497514365427392,2.3329158600820974,2.654688634081743
3,2.5020333018393286,2.3394001144768675,2.657469179967735
3.1,2.5065070839174486,2.345840745207746,2.660168163287094
3.2,2.5109357116617512,2.3522268972086673,2.662831400556915
3.3,2.5153191850722383,2.3585571912240804,2.6654588917771975
3.4,2.519657504148908,2.364831627253983,2.6680506369479406
3.5,2.5239506688917617,2.371050205298376,2.670606636069145
3.6,2.5281986793007984,2.3772150107247088,2.6731268891408106
3.7,2.532401535376018,2.3833280071725813,2.675611396162938
3.8,2.5365592371174217,2.3893484246766525,2.67805856232535
3.9,2.540671784525008,2.3953165101572873,2.680462155779577
4,2.544739177598778,2.401254879398691,2.682853996885014
4.1,2.548761416338732,2.4070501632315535,2.685247869723085
4.2,2.5527385007448684,2.412790709060212,2.687605369699046
4.3,2.556670430817189,2.4184591559585273,2.6899264968128973
4.4,2.5605572065556927,2.4239654333980725,2.692211251064638
4.5,2.56439882796038,2.429585166954703,2.694459632454268
4.6,2.5681952950312503,2.435159003681112,2.6965963789582603
4.7,2.5719466077683037,2.4406841072034524,2.698658861177501
4.8,2.575652766171541,2.4461213020187422,2.700662594276113
4.9,2.579313770240961,2.4514422255438886,2.702647010329655
5,2.5829296199765652,2.456783323255882,2.7045965180718543
5.1,2.5865003153783523,2.4621497361418987,2.706496565805703
5.2,2.5900258564463225,2.467459169102953,2.708366157487499
5.3,2.5935062431804767,2.472532243774445,2.7102006207399256
5.4,2.596941475580814,2.4775509086177427,2.711999955562982
5.5,2.600331553647335,2.482515163632847,2.713764161956669
5.6,2.6036764773800387,2.487483757639745,2.7156222506498264
5.7,2.6069762467789257,2.4924208875584726,2.71748706041325
5.8,2.610230861843997,2.4973025371971262,2.719304566400528
5.9,2.6134403225752507,2.5021287065557036,2.720814327186255
6,2.6166046289726883,2.5069002088872763,2.7225070712766866
6.1,2.619723781036309,2.5116215986667028,2.724159916839274
6.2,2.622797778766113,2.516287433257161,2.7257664739512997
6.3,2.6258266221621014,2.5208977126586505,2.7272338022506215
6.4,2.6288103112242722,2.5254556043596192,2.728562954995378
6.5,2.6317488459526266,2.5299592190352804,2.729857748928551
6.6,2.6346422263471645,2.5344042432639577,2.73136840557762
6.7,2.637490452407885,2.5387890033958103,2.7328174913111507
6.8,2.6402935241347896,2.5431137687494463,2.734256230817291
6.9,2.6430514415278776,2.5473683883850757,2.7357281041644184
7,2.645764204587149,2.5515678670562183,2.737010538404472
7.1,2.6484318133126035,2.5557026111339174,2.7382486426951855
7.2,2.651054267704241,2.559799615702069,2.7393901134283025
7.3,2.653631567762063,2.5638298619028994,2.7404958566001976
7.4,2.656163713486067,2.567804985212927,2.741567093438165
7.5,2.658650704876255,2.5717249856321507,2.742603823942205
7.6,2.661092541932627,2.5755919485280208,2.743606048112319
7.7,2.663489224655181,2.57941214028802,2.7445737659485054
7.8,2.6658407530439194,2.583302454792099,2.7455011066877058
7.9,2.668147127098841,2.587133179414587,2.746380591534404
8,2.6704083468199458,2.5908151134591484,2.7472496998989335
8.1,2.6726244122072345,2.594276236636852,2.7481402259306424
8.2,2.6747953232607053,2.597584439651639,2.7490430837534596
8.3,2.67692107998036,2.6009041144494542,2.749902282024891
8.4,2.6790016823661986,2.604244209622597,2.7507074094373536
8.5,2.6810371304182206,2.607700344455351,2.7515314916107734
8.6,2.6830274241364256,2.6111161693684455,2.7522038772184496
8.7,2.684972563520814,2.614482871552224,2.7528557699282334
8.8,2.686872548571386,2.617724240901598,2.7534449622877855
8.9,2.688727379288141,2.620817202232759,2.7539382179790293
9,2.6905370556710793,2.6237271449190738,2.7545175574323495
9.1,2.6923015777202015,2.6270108430855723,2.7549764398764696
9.2,2.694020945435507,2.629984045819908,2.755418493265704
9.3,2.6956951588169953,2.632693911788828,2.7558797326635025
9.4,2.6973242178646673,2.6352654386884087,2.7564341380168598
9.5,2.6989081225785228,2.6379132789305393,2.757046771964837
9.6,2.7004468729585613,2.64060779394762,2.75760900439636
9.7,2.7019404690047835,2.64333549420603,2.758316903639619
9.8,2.703388910717189,2.6459135224987618,2.758823884546707
9.9,2.704792198095778,2.648372425158746,2.7591294953242618
10,2.7061503311405497,2.6508049356431638,2.7592843940011362
10.1,2.707463309851506,2.653174728631657,2.759704342972947
10.2,2.7087311342286444,2.655492222820094,2.760065433289189
10.3,2.7099538042719673,2.6578411850959816,2.7601652223172994
10.4,2.711131319981473,2.6602194291040826,2.760089103097281
10.5,2.712263681357162,2.662452908563397,2.7600892466637745
10.6,2.7133508883990345,2.664568565960945,2.7604091393001347
10.7,2.7143929411070893,2.666477337562669,2.7608768022921484
10.8,2.715389839481329,2.6684332176160632,2.7612517608252922
10.9,2.7163415835217517,2.6704800719236337,2.761207618715373
11,2.7172481732283575,2.6722052937846708,2.7613383984293485
11.1,2.7181096086011465,2.673912283267665,2.761329590609125
11.2,2.7189258896401194,2.6756925901836683,2.7612435760808562
11.3,2.719697016345276,2.677265164682763,2.7612197766286997
11.4,2.720422988716615,2.6789657978016965,2.761232643482868
11.5,2.7211038067541375,2.6804609196187634,2.761133979816086
11.6,2.7217394704578437,2.6820020912412486,2.760909864474743
11.7,2.722329979827733,2.683445208858388,2.7605895659491058
11.8,2.722875334863806,2.6849337579192616,2.7603494925685528
11.9,2.7233755355660625,2.686452258700366,2.7600524585832087
12,2.723830581934502,2.687653179348953,2.759697241792677
12.1,2.724240473969125,2.6887710734540686,2.7593150685586805
12.2,2.7246052116699313,2.6896530891209025,2.7589463483881946
12.3,2.7249247950369204,2.6905339657808405,2.758589947737816
12.4,2.725199224070094,2.691552284560522,2.758278183714685
12.5,2.72542849876945,2.6924678604592134,2.757875297436622
12.6,2.7256126191349903,2.693299329035457,2.7574873192486002
12.7,2.725751585166713,2.694091502717154,2.757028362899466
12.8,2.72584539686462,2.6947977179632234,2.7566367874019067
12.9,2.72589405422871,2.695419285289095,2.756062201331294
13,2.7258975572589828,2.695789451680862,2.755550715932338
13.1,2.7258559059554397,2.6964847038839044,2.7548950883457883
13.2,2.7257691003180797,2.6969098523407258,2.7542311994900532
13.3,2.725637140346903,2.6972585608202984,2.7535162798410546
13.4,2.7254600260419095,2.697428919919722,2.752937842798082
13.5,2.7252377574030993,2.697572980523234,2.752486462750917
13.6,2.724970334430473,2.6977098345754573,2.751847727518216
13.7,2.72465775712403,2.6977924332263523,2.75129342739603
13.8,2.72430002548377,2.6977005614433853,2.7505626920574042
13.9,2.7238971395096936,2.697711664397825,2.7499137058806697
14,2.723449099201801,2.697533866362076,2.748774109191234
14.1,2.7229559045600915,2.6973908469686894,2.7479329633975977
14.2,2.722417555584565,2.6971360617705393,2.747151958973021
14.3,2.721834052275222,2.696897284143713,2.7460997971240477
14.4,2.7212053946320625,2.6968391361682427,2.7449105111990644
14.5,2.720531582655086,2.696337959883484,2.7439305376960963
14.6,2.719812616344293,2.695904134454981,2.743042795179187
14.7,2.719048495699684,2.695233737817289,2.742250339690712
14.8,2.7182392207212573,2.694684633920968,2.741305031752682
14.9,2.717384791409015,2.6941870527840086,2.7401529430980043
15,2.7164852077629558,2.6934357848220745,2.739161897230156
15.1,2.7155404697830794,2.692532634853711,2.738035781683699
15.2,2.714550577469387,2.6917703594790776,2.736767945753056
15.3,2.7135155308218772,2.6908205982129316,2.735698298744122
15.4,2.7124353298405515,2.6899235082712325,2.734707203252168
15.5,2.711309974525409,2.6890269895124037,2.7335278737491127
15.6,2.71013946487645,2.688078772330147,2.7323358122547834
15.7,2.708923800893674,2.6870407854008267,2.730897611792186
15.8,2.707662982577081,2.6859390531665923,2.729484918071325
15.9,2.7063570099266725,2.684735703323626,2.7280302688431597
16,2.705005882942447,2.68349994679844,2.7265539283631655
16.1,2.7036096016244047,2.682170396723305,2.7250231029099017
16.2,2.702168165972546,2.6808236867782065,2.7233457855749617
16.3,2.70068157598687,2.679290344922004,2.721875388336664
16.4,2.699149831667378,2.677819595785971,2.72038149522145
16.5,2.6975729330140688,2.6762866948607926,2.71875933028966
16.6,2.6959508800269436,2.6747518529792895,2.717230665481219
16.7,2.6942836727060016,2.673005292259293,2.7155595345672348
16.8,2.6925713110512426,2.6712630861914732,2.713879758009038
16.9,2.690813795062667,2.6695040349107497,2.712090514718699
17,2.689011124740275,2.6677819358797867,2.7102361619350566
17.1,2.6871633000840665,2.6660079445849307,2.7084629636715922
17.2,2.685270321094041,2.664192576114808,2.7066437434820543
17.3,2.6833321877701994,2.662336424266698,2.7047705262793045
17.4,2.681348900112541,2.660394530402995,2.7028863569966033
17.5,2.6793204581210657,2.658222525667843,2.7010188481054618
17.6,2.6772468617957736,2.6559887934482047,2.6990976478550013
17.7,2.6751281111366656,2.653645134896772,2.697010902009432
17.8,2.67296420614374,2.6512942034656497,2.6948276796803556
17.9,2.6707551468169983,2.649008656222356,2.692615604826955
18,2.6685009331564404,2.646523652917331,2.690283932269766
18.1,2.6662015651620656,2.6442139307596317,2.687996792428076
18.2,2.663857042833874,2.641804117887596,2.6857775701416293
18.3,2.6614673661718653,2.63933757057148,2.6833690430696358
18.4,2.6590325351760407,2.636981193818557,2.680884785372469
18.5,2.656552549846399,2.634254037170713,2.6784436057588348
18.6,2.654027410182941,2.6316353576672897,2.676014255990321
18.7,2.6514571161856666,2.628907941928138,2.673501453596664
18.8,2.6488416678545748,2.6262229306566955,2.6709936847121645
18.9,2.646181065189667,2.6234606962329776,2.668425856103255
19,2.643475308190942,2.6206948208257668,2.6658293096322683
19.1,2.640724396858401,2.6177146194273604,2.663183655815721
19.2,2.637928331192043,2.614799256896752,2.660347571721819
19.3,2.6350871111918677,2.611845863839126,2.6576044084167774
19.4,2.632200736857877,2.608775180832696,2.6548564651281357
19.5,2.6292692081900695,2.605865155614558,2.651987977534199
19.6,2.626292525188445,2.602810906567065,2.649244513936786
19.7,2.623270687853004,2.5997400435951494,2.6462646090534343
19.8,2.6202036961837463,2.596671031239918,2.6432373307371178
19.9,2.617091550180672,2.5934210708508645,2.6402242644475957
20,2.6139342498437808,2.590318332638506,2.6371692703219667
20.1,2.6107317951730735,2.5870184881328706,2.6339609329483933
20.2,2.6074841861685494,2.5837281136160737,2.630590497398905
20.3,2.6041914228302083,2.580318031792321,2.627419285069797
20.4,2.600853505158051,2.5769737969890443,2.6241355112005307
20.5,2.5974704331520764,2.573628305701245,2.6207517966886344
20.6,2.5940422068122855,2.5703257064216922,2.61736087176811
20.7,2.5905688261386786,2.5667841082494096,2.6139064895281865
20.8,2.587050291131254,2.5631277962950687,2.610378705607948
20.9,2.583486601790014,2.5594619286681657,2.6069026293264894
21,2.5798777581149563,2.5558406328856482,2.603256790925339
21.1,2.5762237601060827,2.5521616706801193,2.5996118165679123
21.2,2.572524607763392,2.5484467398114194,2.595998884636189
21.3,2.5687803010868846,2.5446962381169316,2.592397667166697
21.4,2.564990840076561,2.540911256335077,2.588774523395861
21.5,2.5611562247324207,2.537003338694661,2.5850872202474307
21.6,2.5572764550544633,2.533033449782624,2.5813440492109567
21.7,2.55335153104269,2.5290691486304615,2.57738640911861
21.8,2.549381452697099,2.525164485998742,2.5733055455875675
21.9,2.5453662200176925,2.5210000333092966,2.5691575729045173
22,2.541305833004469,2.516903634559334,2.5650579262710993
22.1,2.5372002916574283,2.5129671426471,2.5609614809440915
22.2,2.5330495959765718,2.508962827600049,2.5568083899995253
22.3,2.5288537459618983,2.504813350127893,2.5525891432898864
22.4,2.5246127416134083,2.500739647681401,2.5483522161109975
22.5,2.5203265829311015,2.496486761109479,2.543999388429909
22.6,2.5159952699149777,2.492191803636648,2.5395671057665195
22.7,2.511618802565038,2.487868572898414,2.535032292037928
22.8,2.507197180881281,2.4835292453511113,2.5305851007192652
22.9,2.5027304048637076,2.479074946441631,2.5260268378017354
23,2.498218474512318,2.47455307223177,2.521492212966319
23.1,2.4936613898271114,2.4700108791867574,2.5168627239011263
23.2,2.4890591508080884,2.4654555152490527,2.5121518826361275
23.3,2.484411757455248,2.4608728168294514,2.5075087355515167
23.4,2.479719209768592,2.4563274667495634,2.50281519436012
23.5,2.4749815077481188,2.451812214118085,2.497953585579669
23.6,2.4701986513938294,2.447050163520509,2.49317762146288
23.7,2.465370640705723,2.442251017478279,2.4883359505812424
23.8,2.4604974756837996,2.4374654114598826,2.483538729112478
23.9,2.45557915632806,2.432626902031599,2.478609941708646
24,2.450615682638504,2.427646686468461,2.473563120363166
24.1,2.445607054615131,2.4227190449561524,2.4683582975999796
24.2,2.440553272257942,2.4176037294998487,2.4632378580243754
24.3,2.435454335566935,2.412506478994217,2.458122961123927
24.4,2.4303102445421123,2.4074688066436556,2.452912165690046
24.5,2.4251209991834735,2.4025194854792806,2.447556031355614
24.6,2.419886599491017,2.397325744080288,2.442192293120253
24.7,2.414607045464745,2.392229916575006,2.436778872329673
24.8,2.4092823371046546,2.3869096106331966,2.431334911875636
24.9,2.4039124744107494,2.3815784557815913,2.425965338321115
25,2.3984974573830264,2.376024030813812,2.4204468425253562
25.1,2.3930372860214875,2.370422318553385,2.41478252092024
25.2,2.3875319603261316,2.3648994351476196,2.4092007612324258
25.3,2.381981480296959,2.3593110719725656,2.4037258618765263
25.4,2.37638584593397,2.353722573835539,2.3983761055729316
25.5,2.3707450572371642,2.347861251783577,2.3927728059492464
25.6,2.3650591142065416,2.342134342006974,2.3872484911151277
25.7,2.3593280168421034,2.3362536429819363,2.3815890728234974
25.8,2.3535517651438473,2.3304414961944255,2.375760711076918
25.9,2.3477303591117753,2.3244392468894692,2.3698365018649397
26,2.3418637987458863,2.3186230103164975,2.3639653569733072
26.1,2.3359520840461805,2.3128648636614937,2.3580952188359934
26.2,2.3299952150126586,2.3066693874884656,2.3521803659935605
26.3,2.32399319164532,2.300425478408826,2.3462505780424525
26.4,2.317946013944164,2.2942759044531655,2.3403308900276416
26.5,2.3118536819091924,2.2879786704882803,2.3343586709571964
26.6,2.3057161955404037,2.281741795259287,2.3284643614709797
26.7,2.2995335548377986,2.2753406839690893,2.322395983549328
26.8,2.293305759801376,2.269055267050738,2.316406137977845
26.9,2.287032810431138,2.2628408676983773,2.3102581339279586
27,2.2807147067270828,2.256366198106257,2.304071097549507
27.1,2.2743514486892105,2.2498962194694885,2.297793519297972
27.2,2.2679430363175226,2.2433801186565656,2.2916459287908015
27.3,2.261489469612017,2.2367178482329497,2.285437788500418
27.4,2.2549907485726957,2.2300963448695335,2.2792347249099034
27.5,2.248446873199557,2.2235699745997968,2.2728216417530294
27.6,2.2418578434926024,2.216661870600774,2.266443564748357
27.7,2.2352236594518304,2.2096285646480878,2.2602033084379793
27.8,2.228544321077242,2.2026917697294444,2.253756606387828
27.9,2.2218198283688375,2.195829193619933,2.2471647655625544
28,2.2150501813266157,2.1887107537615607,2.240492633755931
28.1,2.208235379950578,2.1816361294949385,2.2337553201041374
28.2,2.201375424240723,2.1742765211154125,2.227193748752926
28.3,2.1944703141970514,2.1669606515274253,2.2206742832142723
28.4,2.1875200498195633,2.159499100345632,2.2141761079784263
28.5,2.1805246311082587,2.1521573413021273,2.207435723055521
28.6,2.173484058063137,2.1447430898432573,2.2007656865355667
28.7,2.1663983306841996,2.137150600671253,2.1941456208601107
28.8,2.1592674489714447,2.1296338287111283,2.187287141660168
28.9,2.1520914129248734,2.1221417383170595,2.1804156199509186
29,2.1448702225444856,2.1144035133583667,2.1736019177126096
29.1,2.1376038778302813,2.1066693577137907,2.16664315163431
29.2,2.1302923787822605,2.099025369668583,2.1597363722649843
29.3,2.1229357254004224,2.0913067115626203,2.1530461202696634
29.4,2.1155339176847683,2.083586035148003,2.1464018377515286
29.5,2.1080869556352972,2.075446917168639,2.139511442474362
29.6,2.1005948392520093,2.067397489805641,2.132704804179901
29.7,2.0930575685349053,2.059208863579223,2.1259522624218246
29.8,2.085475143483984,2.0509521860116053,2.118885577702456
29.9,2.077847564099247,2.0426176497286734,2.111720996669269
30,2.070174830380693,2.034576158169062,2.1047241377353476
30.1,2.0624569423283217,2.0263091815873664,2.0978058454102144
30.2,2.0546938999421345,2.0176818799505805,2.090751238411609
30.3,2.0468857032221304,2.0089618531265936,2.083425725495634
30.4,2.03903235216831,2.000215407483425,2.0761840333534067
30.5,2.0311338467806723,1.9915311291649478,2.069035272941504
30.6,2.0231901870592184,1.9829797078860758,2.0619978921685616
30.7,2.015201373003948,1.9739231421503871,2.0548453249920215
30.8,2.0071674046148607,1.9651401391118002,2.047668105774455
30.9,1.9990882818919569,1.9565752805492984,2.0402524750478035
31,1.9909640048352362,1.947905744613547,2.0328420157823266
31.1,1.982794573444699,1.9389187699462043,2.0253438389900733
31.2,1.9745799877203454,1.9298121141467464,2.0179907909838093
31.3,1.9663202476621748,1.9205819877975385,2.010465245403862
31.4,1.9580153532701878,1.9114276364999023,2.0030545681454837
31.5,1.9496653045443844,1.9022562904688936,1.9954746884254946
31.6,1.941270101484764,1.8928891250213593,1.9878348939865071
31.7,1.9328297440913271,1.8834253001419339,1.9803101006432056
31.8,1.9243442323640738,1.874037436049726,1.9725671127398137
31.9,1.9158135663030036,1.864775831809333,1.9651158453167887
32,1.9072377459081167,1.8553809507409125,1.9576241416824474
32.1,1.8986167711794133,1.8458711352412018,1.9500796326677858
32.2,1.8899506421168932,1.8361553810080866,1.9425776563735795
32.3,1.8812393587205565,1.8263938240612427,1.9349511091769735
32.4,1.8724829209904033,1.8164553146598945,1.9273067680449572
32.5,1.863681328926433,1.806502645594935,1.9194462015111837
32.6,1.8548345825286465,1.7966744343498595,1.9116175452091495
32.7,1.8459426817970432,1.7865034820262098,1.9038425002346941
32.8,1.8370056267316235,1.7764647185602653,1.8958658561339725
32.9,1.8280234173323868,1.7664485969880925,1.8878562647352246
33,1.8189960535993337,1.7564498325420888,1.8798905697101915
33.1,1.8099235355324639,1.7464385714550605,1.8718285245335327
