temp,mean,conf_lower,conf_upper
0,-5.91311870995102,-7.8765675884651,-3.859548168383513
0.1,-6.12834825259507,-8.167425426648395,-3.9955076409105525
0.2,-6.339136780971363,-8.452824853100132,-4.1280776871963605
0.3,-6.545499638501016,-8.732793143864816,-4.2572777759971
0.4,-6.747452210011527,-9.007335166894684,-4.38311994180036
0.5,-6.971782092850896,-9.311523467881576,-4.523683286083933
0.6,-7.218105750180731,-9.644797719729084,-4.678669792411775
0.7,-7.459268720251402,-9.971639680736526,-4.829721115910186
0.8,-7.695288966646339,-10.292518922210443,-4.976850407927821
0.9,-7.9261845017505,-10.607105190770444,-5.120066292482618
1,-8.151973387099927,-10.915225249715183,-5.259370705854862
1.1,-8.372673733735164,-11.217495475388949,-5.394785180283877
1.2,-8.588303702558571,-11.513449607258254,-5.526315236334833
1.3,-8.825653675515172,-11.838434697449893,-5.672078331538141
1.4,-9.084342908953285,-12.192240268281791,-5.831781530347644
1.5,-9.337219742968008,-12.538873405633492,-5.98705785741115
1.6,-9.584304951714685,-12.878276490829498,-6.137920817348701
1.7,-9.825619366947382,-13.210695130951583,-6.284385872318005
1.8,-10.061183878439312,-13.536454022266524,-6.426474452685628
1.9,-10.3177916052275,-13.88996539623608,-6.582262129913841
2,-10.568292378218517,-14.236152025852526,-6.733360013111116
2.1,-10.812708467421572,-14.574525964196395,-6.879820002056212
2.2,-11.051062205529863,-14.905530578136956,-7.0216600243166996
2.3,-11.31014815920399,-15.264476380501868,-7.176979674396368
2.4,-11.562817611716845,-15.61551938299597,-7.3274156068862295
2.5,-11.835866461045953,-15.99369325831882,-7.491066575493316
2.6,-12.102147325670803,-16.363540318824505,-7.649563475418218
2.7,-12.3616852718757,-16.725171634180786,-7.802915939850191
2.8,-12.614505437401743,-17.078575503050164,-7.951128941524948
2.9,-12.887405202801707,-17.45907674038952,-8.112310498132212
3,-13.153238674157352,-17.830613915315162,-8.26811485564554
3.1,-13.412032410425494,-18.193285793515813,-8.41856143544727
3.2,-13.663813047133793,-18.54732499040739,-8.56366947611364
3.3,-13.935379467779994,-18.928226969125227,-8.721542041670393
3.4,-14.22635945741372,-19.33489342961113,-8.891944172556355
3.5,-14.509609912203878,-19.73232782847656,-9.056827602535423
3.6,-14.785160189978857,-20.120151924276083,-9.216155856749046
3.7,-15.079811904814159,-20.533752572304728,-9.387431672375888
3.8,-15.366423409861106,-20.937589461491694,-9.552128933550613
3.9,-15.645025524805767,-21.33177461455632,-9.710276199097503
4,-15.942421330498542,-21.75113178204383,-9.880397044217792
4.1,-16.231470651825394,-22.159913159531516,-10.04440022870926
4.2,-16.512205785209858,-22.55853428009217,-10.202178917338465
4.3,-16.784659122466724,-22.947641072167496,-10.353579564061604
4.4,-17.04886315154174,-23.326097171377377,-10.498425892852422
4.5,-17.304850457260148,-23.6943453352485,-10.637377981037341
4.6,-17.552653722084163,-24.052593708865675,-10.77044602373706
4.7,-17.79230572687965,-24.401036038204566,-10.897434198242003
4.8,-18.023839351692008,-24.73951668200249,-11.01810550487696
4.9,-18.24728757653149,-25.067957554698037,-11.132855227163628
5,-18.46268348216814,-25.38643718104248,-11.241865433547778
5.1,-18.67006025093637,-25.695559787917315,-11.345233679770473
5.2,-18.86945116754953,-25.99511697619666,-11.442694736815605
5.3,-19.06088961992444,-26.284680586551993,-11.533805535324452
5.4,-19.24440910001617,-26.56449237782092,-11.619219274311382
5.5,-19.42004320466321,-26.83461825404763,-11.699249726590388
5.6,-19.587825636443174,-27.095254764414527,-11.773785583144333
5.7,-19.747790204539246,-27.346705288384037,-11.84245279852172
5.8,-19.89997082561753,-27.588976898556894,-11.905197216056639
5.9,-20.04440152471547,-27.822142782966242,-11.96192424604223
6,-20.1811164361416,-28.046385984278285,-12.013466063713848
6.1,-20.310149804386686,-28.261228946183056,-12.059777315372216
6.2,-20.431535985046597,-28.466697780068593,-12.100197207788801
6.3,-20.545309445756992,-28.663256129252005,-12.134205343412678
6.4,-20.651504767140082,-28.849858257193084,-12.162161623402046
6.5,-20.75015664376368,-29.026387559050026,-12.184023792704538
6.6,-20.841299885112686,-29.19328228074886,-12.200141380899659
6.7,-20.924969416573312,-29.35170322416463,-12.210904251606683
6.8,-21.001200280430197,-29.502784043764812,-12.215949062992625
6.9,-21.070027636876677,-29.646299716301577,-12.215556190445742
7,-21.131486765038414,-29.781059768327857,-12.210557035551158
7.1,-21.185613064010635,-29.907417882632668,-12.200083843659122
7.2,-21.23244205390924,-30.024825592126167,-12.183223461553242
7.3,-21.27200937693594,-30.13402206037506,-12.159941698359402
7.4,-21.304350798457822,-30.233960286505834,-12.131170838283722
7.5,-21.32950220810144,-30.32499600851075,-12.097518572672236
7.6,-21.347499620861807,-30.405828860961012,-12.058938201603825
7.7,-21.3583791782265,-30.478604289696598,-12.014827035268066
7.8,-21.362177149315173,-30.543581565155968,-11.965494233688542
7.9,-21.358929932034748,-30.600521041620542,-11.911198324674505
8,-21.348674054250584,-30.649072164238564,-11.8514030667097
8.1,-21.33144617497389,-30.688030532361633,-11.785594952316673
8.2,-21.30728308556572,-30.719358866759773,-11.714092337688253
8.3,-21.276221710957824,-30.742908536512765,-11.63794284314361
8.4,-21.23829911089066,-30.757569009749865,-11.557212317242207
8.5,-21.193552481168965,-30.76284564219904,-11.471518120558141
8.6,-21.142019154935074,-30.759826604725465,-11.381131072714705
8.7,-21.083736603960492,-30.74760734954404,-11.285769420917864
8.8,-21.018742439955883,-30.727891996220695,-11.184169267814259
8.9,-20.947074415900005,-30.699953528857083,-11.075856132571579
9,-20.868770427387798,-30.66342704061256,-10.961768224841927
9.1,-20.783868513998094,-30.618422671760026,-10.842669487731769
9.2,-20.692406860681277,-30.56794374760965,-10.71983141211418
9.3,-20.594423799167316,-30.509697809944285,-10.593408602706345
9.4,-20.489957809394507,-30.44558910189356,-10.462088919738337
9.5,-20.3790475209594,-30.3742049776559,-10.32563616097974
9.6,-20.261731714588272,-30.29455216165386,-10.185689457394044
9.7,-20.138049323630586,-30.207755151597592,-10.040767348403012
9.8,-20.00803943557491,-30.11273663812637,-9.89011578214392
9.9,-19.871741293587657,-30.00753886502125,-9.73536220526404
10,-19.729194298075182,-29.89313351817444,-9.575453775485805
10.1,-19.580438008269685,-29.772132295353405,-9.411005872889158
10.2,-19.42551214383934,-29.645391741419704,-9.242421153667271
10.3,-19.264456586523274,-29.513448762483918,-9.06979839824622
10.4,-19.09731138179171,-29.374009800067807,-8.89245636613857
10.5,-18.924116740531996,-29.226377711203043,-8.711261540472856
10.6,-18.744913040760903,-29.07173902346913,-8.525499691012485
10.7,-18.559740829363765,-28.908149760367273,-8.335400794272392
10.8,-18.3686408238611,-28.73543674705321,-8.141466282458921
10.9,-18.171653914203155,-28.555111159332487,-7.941939446402721
11,-17.968821164593066,-28.368494702846352,-7.738193803716611
11.1,-17.760183815339186,-28.17599626845287,-7.530710405709703
11.2,-17.54578328473719,-27.977933296241964,-7.319242052637532
11.3,-17.325661170982645,-27.77254548414567,-7.102688888603258
11.4,-17.099859254114616,-27.56064381906246,-6.882352000201234
11.5,-16.86841949799105,-27.34053219279265,-6.656150042433629
11.6,-16.63138405229657,-27.11102544780331,-6.426262395815985
11.7,-16.38879525458342,-26.875075310550226,-6.193520939738207
11.8,-16.14069563234624,-26.635075059409765,-5.955722503983444
11.9,-15.887127905131472,-26.390046385657847,-5.7165950226378675
12,-15.62813498668209,-26.13914871384634,-5.474808041944257
12.1,-15.363759987118513,-25.879430307228663,-5.226117408394017
12.2,-15.094046215156418,-25.613576724474587,-4.974984836367571
12.3,-14.819037180362374,-25.339991884232504,-4.719030777031065
12.4,-14.538776595448052,-25.05951306430558,-4.455759919337416
12.5,-14.253308378603977,-24.768878359095954,-4.1885167936856655
12.6,-13.962676655873622,-24.473947567868606,-3.9226046324041013
12.7,-13.666925763568864,-24.171491983084778,-3.646142499131344
12.8,-13.366100250727676,-23.863375988940632,-3.368118107592709
12.9,-13.06024488161506,-23.552729043137525,-3.086867718789789
13,-12.749404638268235,-23.23586557985739,-2.7977244569355606
13.1,-12.4336247230871,-22.91339662890437,-2.5066170027908883
13.2,-12.112950561471015,-22.585539537451183,-2.212798959521209
13.3,-11.787427804503047,-22.252447524285024,-1.9119873056343635
13.4,-11.457102331682725,-21.912071850667584,-1.6073895838763246
13.5,-11.122020253708572,-21.564255651223423,-1.3034272348892262
13.6,-10.78222791531148,-21.211591228334782,-0.9944607171387901
13.7,-10.43777189814027,-20.853577418828262,-0.6864966014070562
13.8,-10.088699023700617,-20.490737489814492,-0.37465740418390897
13.9,-9.735056356348695,-20.123700947279453,-0.05407383665862977
14,-9.376891206340867,-19.746717912128208,0.2708211278912238
14.1,-9.014251132940782,-19.36265770251952,0.5970108105920819
14.2,-8.647183947585354,-18.97837820408491,0.9322203920097603
14.3,-8.275737717111031,-18.589492720311924,1.2677712609619007
14.4,-7.899960767041907,-18.193068154894938,1.6036294549990302
14.5,-7.51990168494125,-17.791692095860228,1.9446136415157256
14.6,-7.135609323827998,-17.38445225459818,2.2831048414224493
14.7,-6.7471328056599456,-16.973279628535682,2.6294985835106086
14.8,-6.354521524885314,-16.56287413343796,2.9800925918412653
14.9,-5.957825152064436,-16.146680775237662,3.333545173797824
15,-5.557093637563451,-15.722411320689046,3.694285822155596
15.1,-5.152377215321813,-15.290664803934517,4.052869083169899
15.2,-4.743726406695632,-14.850734698666553,4.418395978080773
15.3,-4.331192024378804,-14.40683661526919,4.78581853478815
15.4,-3.9148251764039945,-13.960497276108741,5.160848694413726
15.5,-3.494677270225696,-13.507840371093769,5.531638058457702
15.6,-3.0708000168874556,-13.048877212270066,5.9114804985051554
15.7,-2.6432454352756647,-12.593429224972542,6.288962505889458
15.8,-2.2120658564622175,-12.132236440845416,6.666681249758343
15.9,-1.7773139281384709,-11.66405518942021,7.051496319970588
16,-1.3390426191430946,-11.19187286603065,7.429799489935746
16.1,-0.8973052240863465,-10.717804829746454,7.810705971822513
16.2,-0.4521553680735446,-10.238139066454643,8.202751887633168
16.3,-0.0036470115304904627,-9.755970663499031,8.602455944430563
16.4,0.4481655448662687,-9.270552461481861,9.001963005104017
16.5,0.903227655151283,-8.780487377382029,9.410720492546895
16.6,1.3614843229211318,-8.287332864776317,9.819320074604983
16.7,1.8228801960711494,-7.788285147090018,10.233092660836355
16.8,2.2873595614146724,-7.28447847466203,10.646242181338955
16.9,2.7548663391813593,-6.778811736387731,11.057138003916979
17,3.225344077390949,-6.270793391735369,11.462972828087224
17.1,3.6987359460988443,-5.765167964055347,11.88115836551163
17.2,4.174984731509602,-5.251122012522928,12.305457591609086
17.3,4.654032829954387,-4.738128710009263,12.72918260139109
17.4,5.135822241728275,-4.224015196369264,13.160673231417709
17.5,5.62029456478304,-3.6994001881852103,13.59358922810789
17.6,6.107390988271095,-3.1724845926371112,14.0304673196007
17.7,6.597052285935843,-2.6374936441109265,14.468537723630268
17.8,7.08921880934373,-2.093705136872511,14.903080147210831
17.9,7.583830480953013,-1.5537354575617184,15.35173759035951
18,8.080826787013983,-1.0080265327946083,15.792102360135953
18.1,8.580146770295391,-0.46316751829925684,16.234309629311642
18.2,9.081729022631368,0.07509642384906616,16.681880950507118
18.3,9.5855116772831,0.6248382905563351,17.13271447468937
18.4,10.091432401109195,1.1786046504263827,17.580394904905305
18.5,10.599428386538422,1.7272116396537396,18.038135676572782
18.6,11.109436343338304,2.284302268973171,18.491193154960417
18.7,11.621392490172735,2.848595359137687,18.94831223070818
18.8,12.135232545941514,3.406556178295698,19.40819375004628
18.9,12.650891720894451,3.9674321844235942,19.87521536815024
19,13.168304707512235,4.529987307711182,20.34048555947394
19.1,13.687405671146161,5.091160239904969,20.809724405700297
19.2,14.208128240408252,5.668751769547049,21.277425784776685
19.3,14.730405497303042,6.231626614547932,21.73986030464608
19.4,15.254169967091999,6.800332841707423,22.205071702254916
19.5,15.779353607880937,7.372184308033165,22.66819539054404
19.6,16.305887799920637,7.948395631428319,23.14231135105669
19.7,16.83370333461015,8.523669030680646,23.6136471543493
19.8,17.3627304031921,9.10116432078748,24.098693166790397
19.9,17.892898585128545,9.663565007507977,24.5852487331636
20,18.4241368361456,10.236213588499465,25.06937333511337
20.1,18.956373475934484,10.810338421890167,25.546104352734343
20.2,19.489536175495907,11.388367934239362,26.02905297217285
20.3,20.023551944114363,11.967852609027155,26.51274682409607
20.4,20.558347115948088,12.558631381560089,26.996168696594943
20.5,21.09384733621973,13.128101747314352,27.481929676943626
20.6,21.62997754699227,13.714448969833473,27.97493994308663
20.7,22.166661972513694,14.289937942048411,28.466804519065224
20.8,22.70382410411344,14.861740730113864,28.95923559129705
20.9,23.24138668463249,15.437472057100377,29.446947033535114
21,23.779271692368262,16.009516928534982,29.939276180360416
21.1,24.317400324514523,16.565565719429486,30.43570268178194
21.2,24.85569298007541,17.1425639129638,30.929829346982725
21.3,25.394069242231698,17.71599782468738,31.42186656677285
21.4,25.932447860136264,18.29303930884691,31.930193626929377
21.5,26.47074673011452,18.87284052734629,32.42907220444027
21.6,27.008882876244286,19.438830993970324,32.92385604242149
21.7,27.546772430288257,20.00097703851985,33.41462283851105
21.8,28.084330610950715,20.57196096593924,33.91238216733361
21.9,28.62147170242872,21.124926967175266,34.4167703331103
22,29.158109032226154,21.680797931234046,34.91709474126251
22.1,29.69415494819758,22.253887647760532,35.412422481754625
22.2,30.22952079478665,22.803068733978733,35.927026300180884
22.3,30.76411688842214,23.360209933282025,36.43367811994466
22.4,31.29785249203235,23.921688474620996,36.94026788131188
22.5,31.830635788636446,24.466754839597463,37.446194336574436
22.6,32.36237385396893,25.017096750641226,37.950439200248
22.7,32.892972628090725,25.570080312616867,38.45788323003932
22.8,33.42233688593768,26.109513508373578,38.977378496030276
22.9,33.95037020675438,26.654735210631063,39.48496953724475
23,34.47697494235782,27.216343975469503,40.000274596382
23.1,35.00205218417224,27.75188954175957,40.510508623438874
23.2,35.525501728972586,28.30301074088237,41.010586707909155
23.3,36.04722204327035,28.8458209405795,41.508871597763516
23.4,36.56711022627115,29.37336436237062,42.02325120805973
23.5,37.0850619713287,29.904658530664918,42.52711064801238
23.6,37.60097152581545,30.437457969347232,43.03657893031378
23.7,38.114731649324135,30.952288425910712,43.544526957570156
23.8,38.62623357010935,31.484622090079338,44.04727551437689
23.9,39.135366939671876,32.00846285417217,44.55221587847644
24,39.64201978538173,32.5280647832424,45.06042108744453
24.1,40.146078461028736,33.055044927549076,45.54877975756765
24.2,40.647427595181725,33.56844657295532,46.04041175385135
24.3,41.14595003722873,34.06673192425841,46.534515511521946
24.4,41.64152680096148,34.55584282870838,47.02458476361763
24.5,42.13403700555751,35.04372523712403,47.51665553110072
24.6,42.62335781380214,35.53794577155518,48.00424035497749
24.7,43.10936436738081,36.027750765457256,48.488413576534
24.8,43.591929719059365,36.51882260707689,48.96912909584981
24.9,44.07092476155558,37.01135321823681,49.457212923663796
25,44.546218152889935,37.48974506618376,49.93860010547727
25.1,45.01767623798667,37.95752167409361,50.41231260755715
25.2,45.485162966277564,38.41786679496127,50.88515675802247
25.3,45.94853980504065,38.86327692088415,51.356707314040435
25.4,46.4076656481838,39.31149021787522,51.83243688073781
25.5,46.86239672015828,39.76904495582423,52.28803430952631
25.6,47.31258647466068,40.22725131261389,52.74395958580912
25.7,47.758085487751444,40.68098368359167,53.20126497237039
25.8,48.19874134498541,41.121828479674015,53.6506486157291
25.9,48.634398522113116,41.553978343208605,54.09763893203511
26,49.064898258871345,41.96251589692428,54.53783521335545
26.1,49.49007842533613,42.36745885394412,54.96772963063606
26.2,49.9097733802617,42.777630464496866,55.40045288479109
26.3,50.32381382077307,43.16907893221855,55.8344339335843
26.4,50.73202662271764,43.577192343515996,56.25175552237602
26.5,51.13423467091184,43.9792613737691,56.66086198681084
26.6,51.53025667844077,44.36905390728474,57.06799260418223
26.7,51.919906994081394,44.744239351972766,57.47507748637757
26.8,52.30299539682126,45.1084957832656,57.86799865061725
26.9,52.6793268763338,45.45409501500138,58.249590331374634
27,53.04870139814591,45.80349967685611,58.63185151167704
27.1,53.410913652091075,46.14999582692018,59.01888611206064
27.2,53.765752782480334,46.49394452154538,59.39486613399595
27.3,54.11300209823944,46.81823487292872,59.762579292575616
27.4,54.452438761051006,47.14357392639282,60.11519832073533
27.5,54.783833449300545,47.46824134053299,60.461365538731094
27.6,55.10694999535003,47.77763394749729,60.80178249455364
27.7,55.421544993345485,48.06549649941212,61.13674458361412
27.8,55.727367374399655,48.361789214563714,61.460033486557606
27.9,56.0241579455665,48.632764411204654,61.7909604110032
28,56.31164888853233,48.88978508517854,62.104908109924615
28.1,56.58956321337362,49.15616763177279,62.41039078502147
28.2,56.85761416205956,49.40339966968534,62.696709478420416
28.3,57.11550455558758,49.64389827908508,62.96950753691976
28.4,57.36292607770793,49.877195264503136,63.23321752873036
28.5,57.59955848709014,50.09070697202901,63.49490444133574
28.6,57.8250687484697,50.29830949740304,63.748486936301504
28.7,58.03911007174353,50.49139355944146,63.99652187970764
28.8,58.24132084609535,50.67374636771092,64.23055835195883
28.9,58.431323453953134,50.840608896883396,64.4509480334195
29,58.608722946813074,50.99539657923362,64.65677919924508
29.1,58.77310556158359,51.13640919479982,64.84570393367372
29.2,58.924037051947145,51.281990984998686,65.01529458264388
29.3,59.06106080409598,51.411215236888175,65.17222108081859
29.4,59.183695699791585,51.51904396013629,65.32107019180077
29.5,59.29143368165569,51.599572264349185,65.4571314671269
29.6,59.38373696542361,51.688203868451076,65.58380802233994
29.7,59.46003483090257,51.7476907042596,65.68817707211952
29.8,59.51971990664529,51.80636898046098,65.77031530338085
29.9,59.562143841581374,51.848019206454566,65.84066151636901
30,59.58661222822086,51.87127740064762,65.88677692148138
30.1,59.59237860395501,51.87435489211894,65.90549894729517
30.2,59.57863730565371,51.874469561699776,65.91415495737284
30.3,59.54451488263183,51.83352151958603,65.90591311684081
30.4,59.48905967577522,51.78275548609006,65.86407367385532
30.5,59.411229033383826,51.71405893287282,65.79670147924053
30.6,59.30987343707494,51.631310367650634,65.70152284127414
30.7,59.18371652175594,51.53807742940656,65.57833562087103
30.8,59.03132953924444,51.42726945316033,65.42463455652067
30.9,58.85109814552454,51.2740150497545,65.24639208736022
31,58.64117832836824,51.09912510840373,65.03380562810908
31.1,58.39943654481652,50.893522900405465,64.78628355705855
31.2,58.123366150083996,50.65164099952108,64.50493226421808
31.3,57.80996684406392,50.372676889551805,64.18461116929464
31.4,57.4555637070787,50.06208736148013,63.82168687086881
31.5,57.05552176949664,49.719311020621795,63.410915462622086
31.6,56.603766373798315,49.33680444616924,62.93686812435504
31.7,56.09190633469613,48.90012918538953,62.39673398864533
31.8,55.50742926384039,48.39182357166727,61.804788349212004
31.9,54.82924527757317,47.80589835970402,61.124318021263996
32,54.01234757445802,47.09353959994991,60.35098631273486
32.1,52.78332146041026,45.94870089612345,59.44292410299458
32.2,NA,NA,NA
32.3,NA,NA,NA
32.4,NA,NA,NA
32.5,NA,NA,NA
32.6,NA,NA,NA
32.7,NA,NA,NA
32.8,NA,NA,NA
32.9,NA,NA,NA
33,NA,NA,NA
33.1,NA,NA,NA
33.2,NA,NA,NA
33.3,NA,NA,NA
33.4,NA,NA,NA
33.5,NA,NA,NA
33.6,NA,NA,NA
33.7,NA,NA,NA
33.8,NA,NA,NA
33.9,NA,NA,NA
34,NA,NA,NA
