temp,mean,conf_lower,conf_upper
0,2.448289148813066,2.224613949257573,2.6687469551486176
0.1,2.4498459168996694,2.2273875192371486,2.669150693464905
0.2,2.4513826945358126,2.2301331199744734,2.669468734752864
0.3,2.4528994817214955,2.2328507514695457,2.670005752208859
0.4,2.454396278456718,2.2355404137223664,2.670520038466602
0.5,2.455873084741479,2.238202106732935,2.67101058065043
0.6,2.4573299005757807,2.2408358305012523,2.671272885713936
0.7,2.458766725959622,2.2434364465901737,2.6714513396329593
0.8,2.460183560893003,2.245845295995638,2.6716077537045657
0.9,2.4615804053759227,2.248228104116456,2.671838036530031
1,2.462957259408382,2.250586195958932,2.6721550564162198
1.1,2.4643141229903813,2.2528601562626367,2.672501878656234
1.2,2.46565099612192,2.255091007303036,2.672889883456407
1.3,2.4669678788029987,2.2574935050548968,2.6730407871038153
1.4,2.468264771033617,2.259706809280369,2.673328286176596
1.5,2.4695416728137745,2.261833521545054,2.673697504547577
1.6,2.4707985841434716,2.263935282595382,2.6740591102355995
1.7,2.472035505022708,2.266015226775373,2.6744044096647244
1.8,2.4732524354514847,2.2680737269125846,2.6746561473648294
1.9,2.4744493754298005,2.2702069732482997,2.6748309117602314
2,2.4756263249576556,2.2723424784312956,2.67499295412003
2.1,2.4767832840350508,2.2744517078190123,2.6751422744442257
2.2,2.4779202526619852,2.2765380382975398,2.675278872732819
2.3,2.4790372308384594,2.2785497389312552,2.6754027489858085
2.4,2.4801342185644732,2.2804176775045826,2.6755273035497464
2.5,2.481211215840027,2.282261637861395,2.675740580220875
2.6,2.482268222665119,2.2843320562579956,2.6759371846899724
2.7,2.4833052390397516,2.2864038127315474,2.676114191178901
2.8,2.4843222649639243,2.288220679316391,2.6762773028266427
2.9,2.4853193004376353,2.2899726067678485,2.676569973090321
3,2.4862963454608864,2.2916909586193883,2.676863493752584
3.1,2.4872534000336772,2.293383869945548,2.6769560264558976
3.2,2.4881904641560073,2.295051340746327,2.67700221175965
3.3,2.489107537827877,2.296693371021724,2.677082114843543
3.4,2.490004621049287,2.2983099607717405,2.676997431547647
3.5,2.4908817138202357,2.299901109996376,2.677061832940705
3.6,2.491738816140724,2.30146681869563,2.677122996819919
3.7,2.492575928010753,2.3030188187020317,2.677170152198041
3.8,2.4933930494303205,2.3045457615944254,2.6772032990750714
3.9,2.4941901803994275,2.306052543277933,2.677222437451011
4,2.4949673209180743,2.307769798332343,2.6772275673258585
4.1,2.4957244709862607,2.309587963647758,2.677218688699615
4.2,2.496461630603987,2.3111035135835074,2.67719580157228
4.3,2.4971787997712527,2.3125467440727006,2.6771826556110554
4.4,2.4978759784880578,2.3141775877130057,2.6771860760645407
4.5,2.4985531667544025,2.3157156095462508,2.6771745698552847
4.6,2.4992103645702866,2.316976014763414,2.6771435111646795
4.7,2.4998475719357107,2.3182128853531037,2.677089565363887
4.8,2.5004647888506737,2.319453307486619,2.677020820599596
4.9,2.5010620153151772,2.32082510616845,2.676833724222591
5,2.50163925132922,2.3221808111942677,2.6768495481002366
5.1,2.5047527875024267,2.327529976351471,2.677684898236514
5.2,2.507826342774713,2.333006521951022,2.6783802128733782
5.3,2.510859917146078,2.3382263598996875,2.6794082375193464
5.4,2.513853510616523,2.3433593292220554,2.6802096135640054
5.5,2.5168071231860467,2.3485682318759222,2.681001428136107
5.6,2.5197207548546494,2.35375312210698,2.6818211726905243
5.7,2.5225944056223315,2.3590153265600957,2.682611060339725
5.8,2.5254280754890925,2.3641553983557158,2.683521883093469
5.9,2.528221764454933,2.3690294948363917,2.6843093498459947
6,2.5309754725198523,2.373872305044903,2.6848177453893274
6.1,2.5336891996838506,2.3788104803605155,2.6854780265237146
6.2,2.5363629459469283,2.3836693717435553,2.686044403224292
6.3,2.5389967113090854,2.388491671724033,2.6866634457428153
6.4,2.541590495770321,2.393122335544198,2.687252558247903
6.5,2.544144299330637,2.3976443908486713,2.6879495925844874
6.6,2.5466581219900304,2.4019856319010984,2.688632798325448
6.7,2.549131963748504,2.4060637774153726,2.689293194887072
6.8,2.5515658246060564,2.410197286882733,2.689810826728153
6.9,2.5539597045626885,2.4141805708374586,2.6902660846741915
7,2.556313603618399,2.4184235551635336,2.690738203765392
7.1,2.5586275217731895,2.42254286384198,2.6913636303289583
7.2,2.5609014590270585,2.4265914276804814,2.691997387359541
7.3,2.5631354153800068,2.4306118546141926,2.6926312441671865
7.4,2.565329390832034,2.434753589744587,2.69315751607411
7.5,2.5674833853831407,2.43870984226724,2.6935379713815353
7.6,2.5695973990333263,2.442535319449025,2.693944110804683
7.7,2.5716714317825913,2.4462154832042264,2.6943605139904476
7.8,2.573705483630935,2.449867580292808,2.694723568030204
7.9,2.5756995545783585,2.4533106329389325,2.6951326111431495
8,2.577653644624861,2.4569496828109703,2.695476324399087
8.1,2.579567753770442,2.460610368367318,2.696005971157171
8.2,2.5814418820151026,2.463868462898872,2.6965062624657197
8.3,2.583276029358842,2.4672565619736906,2.697066224016894
8.4,2.5850701958016615,2.4703875395731414,2.697522866797556
8.5,2.5868243813435594,2.4738045587237814,2.698040673778337
8.6,2.5885385859845362,2.4771869009312155,2.6984660070914757
8.7,2.590212809724593,2.4803596650057567,2.698855253505477
8.8,2.591847052563728,2.4836919993179523,2.6991716919919035
8.9,2.593441314501943,2.4864687089275037,2.6995526143125717
9,2.5949955955392365,2.4894599111993427,2.6997662824086897
9.1,2.5965098956756094,2.4924125168386215,2.699884559227522
9.2,2.5979842149110617,2.4951191812544833,2.7000344007387667
9.3,2.599418553245593,2.4978305519910013,2.7001050245499503
9.4,2.6008129106792035,2.5004820641641627,2.7002187056330085
9.5,2.602167287211893,2.503050706545821,2.7002347916941174
9.6,2.603481682843661,2.5055410680425516,2.7002635118888776
9.7,2.604756097574509,2.5080440450686012,2.7001513996816815
9.8,2.605990531404436,2.510507730623843,2.700074125127268
9.9,2.607184984333442,2.5129590610285497,2.700185516750236
10,2.608339456361527,2.5154277024609244,2.7005866093048327
10.1,2.6094539474886913,2.5178399804934815,2.70051556824206
10.2,2.610528457714935,2.5202572756976016,2.700133432747206
10.3,2.6115629870402577,2.5224213164059472,2.7000990852447564
10.4,2.61255753546466,2.5244212820873306,2.700217292774446
10.5,2.6135121029881403,2.5266489317907244,2.7002880692119895
10.6,2.6144266896107,2.528608652396941,2.700106921510981
10.7,2.6153012953323396,2.5307558105416934,2.6996858868309395
10.8,2.6161359201530576,2.5325808044767797,2.6991736680859106
10.9,2.616930564072856,2.534533788975521,2.6987053512024284
11,2.6176852270917323,2.5364452702538536,2.698368956869201
11.1,2.6183999092096872,2.5381366747786585,2.698134462792706
11.2,2.619074610426723,2.5397596099010906,2.6979196245849186
11.3,2.619709330742837,2.5415774079738878,2.6974525901937403
11.4,2.6203040701580305,2.543138484249803,2.6971772097737245
11.5,2.6208588286723025,2.5443396100132425,2.6971621272861706
11.6,2.621373606285654,2.545591162052792,2.696830263065283
11.7,2.6218484029980846,2.546807868345844,2.6964180475498027
11.8,2.6222832188095944,2.5479232121684,2.6958703086702367
11.9,2.6226780537201835,2.5491598967449516,2.6951727622644586
12,2.6230329077298515,2.5501119965357484,2.694625476781541
12.1,2.623347780838598,2.551391272792689,2.6939377405864207
12.2,2.623622673046425,2.552678102461745,2.693216829877814
12.3,2.6238575843533303,2.553578428587958,2.692464712857462
12.4,2.624052514759315,2.554265000046887,2.6917058359439476
12.5,2.624207464264379,2.555130495747173,2.6910397393237564
12.6,2.6243224328685217,2.5561365024342457,2.6903367943618997
12.7,2.6243974205717437,2.557257085170969,2.689592634988368
12.8,2.6244324273740456,2.5579486275369065,2.6888035314381473
12.9,2.624427453275426,2.5586024246586536,2.6881173776021443
13,2.624382498275885,2.559228883519496,2.687408393428652
13.1,2.624297562375424,2.559895995445909,2.6864887306842515
13.2,2.624172645574042,2.560379700196603,2.6854711804057345
13.3,2.6240077478717385,2.5608815585099856,2.684478144866479
13.4,2.6238028692685145,2.5613506150516017,2.6833939593573355
13.5,2.6235580097643703,2.5617911178441846,2.6824030555680016
13.6,2.623273169359304,2.5621920246747503,2.681353445746079
13.7,2.6229483480533182,2.5625557771070477,2.680328860184583
13.8,2.6225835458464104,2.5628142367989803,2.67930583230398
13.9,2.6221787627385824,2.562984633039698,2.678194304387495
14,2.621733998729834,2.563335195761379,2.6769700210864134
14.1,2.6212492538201637,2.5638108348978914,2.6757444575855165
14.2,2.620724528009573,2.5640490616337788,2.674519420178547
14.3,2.6201598212980612,2.5641731176786315,2.673341256201317
14.4,2.619555133685629,2.564379065560376,2.672136696780524
14.5,2.6189104651722763,2.5644274204554955,2.670857295826579
14.6,2.6182258157580014,2.5642323026458307,2.6695552405161167
14.7,2.6175011854428067,2.5640336809783832,2.6681775067435316
14.8,2.6167365742266906,2.5638255350034402,2.66675045710144
14.9,2.615931982109654,2.5637062190791946,2.665179900440692
15,2.6150874090916965,2.563620971081382,2.6637796347186224
15.1,2.6142028551728176,2.5634596344257528,2.662073619704689
15.2,2.613278320353019,2.563429134871514,2.6602130326146147
15.3,2.612313804632298,2.5630991168710917,2.6587067335524988
15.4,2.6113093080106573,2.5626596719691728,2.657027608026433
15.5,2.610264830488096,2.5622971148536413,2.6553901960331827
15.6,2.609180372064613,2.5618911700949347,2.653734718762422
15.7,2.6080559327402097,2.561599054207494,2.6519799152016015
15.8,2.606891512514885,2.561198309406433,2.650302878619468
15.9,2.6056871113886397,2.560542108380948,2.648544080330363
16,2.604442729361474,2.5597253379978806,2.6465199850229615
16.1,2.6031583664333864,2.5590067839603923,2.6446317481311157
16.2,2.601834022604379,2.5582219544257043,2.642660744264796
16.3,2.60046969787445,2.557504303647491,2.6407049389502872
16.4,2.5990653922436007,2.5567623504486043,2.638656441766556
16.5,2.5976211057118306,2.5559715815008897,2.6367073206085476
16.6,2.596136838279139,2.5550383826306247,2.6347083862861775
16.7,2.5946125899455272,2.553819409844511,2.63272741473916
16.8,2.593048360710994,2.552656959228986,2.630569556179502
16.9,2.5914441505755406,2.551304867115287,2.628329522092454
17,2.5897999595391656,2.550273756059005,2.6260995641797016
17.1,2.5881157876018697,2.5491658902901833,2.624010395590635
17.2,2.586391634763654,2.5479320431776307,2.621912809391649
17.3,2.5846275010245163,2.5466547215631747,2.6198019660313383
17.4,2.582823386384458,2.5455762538665883,2.617570944212905
17.5,2.5809792908434797,2.5442095199574717,2.615155232321044
17.6,2.579095214401579,2.542723364248098,2.6127372049826856
17.7,2.5771711570587588,2.5411032486527523,2.6104379861657074
17.8,2.575207118815017,2.5394983684743107,2.607994105880701
17.9,2.573203099670355,2.5376805728757734,2.605560643370934
18,2.571159099624772,2.5360599175090828,2.6030960212955074
18.1,2.569075118678267,2.5344912719184007,2.6007256028119254
18.2,2.566951156830843,2.5326596683630624,2.5982807258214167
18.3,2.5647872140824965,2.5310191525262487,2.595877364634285
18.4,2.5625832904332304,2.5291429785794803,2.593533121320945
18.5,2.5603393858830428,2.52732427280125,2.5910497671413513
18.6,2.558055500431934,2.5255482073527276,2.588430649347486
18.7,2.5557316340799052,2.523384550963044,2.5859192042074524
18.8,2.553367786826955,2.521501078201522,2.583327305379473
18.9,2.5509639586730843,2.5193400426269768,2.580780324765964
19,2.5485201496182928,2.5171468235482495,2.5780694037265914
19.1,2.5460363596625797,2.5150434803489023,2.5753218542550265
19.2,2.5435125888059464,2.512640534433773,2.5725394608554355
19.3,2.5409488370483917,2.5104494904227947,2.569752644115128
19.4,2.538345104389917,2.5082698854832657,2.5669809836791817
19.5,2.535701390830521,2.5058967034626245,2.564161406787882
19.6,2.5330176963702034,2.503486927225322,2.561263919541476
19.7,2.530294021008966,2.5010916731808477,2.5579891780313
19.8,2.527530364746807,2.4986944399557967,2.555046085516576
19.9,2.5247267275837277,2.496227177204188,2.5522674278596584
20,2.521883109519728,2.493717873611864,2.549593692207436
20.1,2.518999510554806,2.491139943447906,2.546637753490243
20.2,2.5160759306889644,2.4885223277060557,2.5433318791052546
20.3,2.5131123699222013,2.485438186737131,2.5402255637963114
20.4,2.510108828254518,2.482394831057894,2.5372881777677745
20.5,2.5070653056859133,2.479446377200314,2.5343161940982144
20.6,2.503981802216387,2.476056294998361,2.531346819561034
20.7,2.5008583178459416,2.4731607353190874,2.5280710318555455
20.8,2.4976948525745737,2.470207287908715,2.5247790606114844
20.9,2.494491406402286,2.467394022633319,2.521471921534279
21,2.4912479793290774,2.464520383557386,2.518247422785212
21.1,2.487964571354947,2.461405758851744,2.515088846646659
21.2,2.484641182479897,2.458320876791908,2.5118833179627114
21.3,2.481277812703925,2.454951770250953,2.508638426091564
21.4,2.477874462027033,2.451771135088537,2.5053075573258194
21.5,2.4744311304492204,2.4480270814147937,2.5022506493328587
21.6,2.470947817970486,2.444522661729125,2.4987960909992593
21.7,2.467424524590831,2.440851386884532,2.4952519702828617
21.8,2.463861250310255,2.4370054241560064,2.49165348620517
21.9,2.4602579951287584,2.433185509420021,2.4879539026387234
22,2.4566147590463414,2.4289978683187763,2.4843829790677057
22.1,2.452931542063003,2.425126187825388,2.4806857470766537
22.2,2.4492083441787442,2.4213620209089712,2.477086250885067
22.3,2.4454451653935636,2.4173560639886134,2.4734143295076834
22.4,2.441642005707463,2.413148197203793,2.4696825308446506
22.5,2.4377988651204414,2.4091257056947573,2.465923310582794
22.6,2.4339157436324985,2.4050374234778555,2.462174276413549
22.7,2.4299926412436355,2.4010772940434713,2.4583204182906773
22.8,2.426029557953851,2.396826428693332,2.4543933509017246
22.9,2.4220264937631457,2.3925143486329086,2.450521932208815
23,2.41798344867152,2.3882452912515184,2.4466342665447245
23.1,2.4139004226789726,2.383964966302046,2.442786311619418
23.2,2.4097774157855056,2.3795044434874693,2.4386728241467184
23.3,2.4056144279911167,2.374980612473206,2.434619543842808
23.4,2.401411459295807,2.370511680308784,2.4305967592374627
23.5,2.3971685096995774,2.3660059487890948,2.4264814478880625
23.6,2.3928855792024257,2.3613960368001576,2.4223293386819664
23.7,2.3885626678043543,2.3564915712005385,2.4182948165727867
23.8,2.384199775505361,2.351846707553471,2.4140623675229502
23.9,2.3797969023054475,2.3469522069368165,2.4099976157420806
24,2.3753540482046134,2.342034037500993,2.40564587215605
24.1,2.3708712132028573,2.3369388764921735,2.4015052303905824
24.2,2.3663483973001815,2.3323243303082526,2.3972377366996582
24.3,2.3617856004965843,2.3273018181829683,2.393166583641285
24.4,2.3571828227920664,2.322133167963689,2.3888286666397134
24.5,2.352540064186628,2.3166793742261103,2.384520228429424
24.6,2.347857324680268,2.3115308055225587,2.380201773491811
24.7,2.3431346042729873,2.306165738658517,2.3758249544072685
24.8,2.338371902964786,2.300785638559273,2.371274236818364
24.9,2.3335692207556633,2.2954338366114504,2.36678889194704
25,2.328726557645621,2.290122478047266,2.362304380036467
25.1,2.323843913634656,2.284697851762208,2.3578951320810724
25.2,2.318921288722772,2.2792620942231405,2.3534575189208002
25.3,2.3139586829099663,2.2737243042179074,2.349016094589655
25.4,2.3089560961962396,2.268027539706262,2.34468061949479
25.5,2.3039135285815924,2.2624760759488574,2.340309815502253
25.6,2.298830980066024,2.256891277926348,2.335766106828815
25.7,2.293708450649535,2.25140706517762,2.3311255624238134
25.8,2.288545940332125,2.2458397111209836,2.326746087753166
25.9,2.283343449113794,2.240007927863559,2.3221844649034615
26,2.2781009769945424,2.2339287896836044,2.3176969586869642
26.1,2.2728185239743697,2.2279663471324933,2.3130800627003074
26.2,2.267496090053277,2.2219634630890788,2.308317741891004
26.3,2.2621336752312624,2.2160277557604116,2.3035819769523345
26.4,2.256731279508327,2.2100243598328375,2.298677652322983
26.5,2.251288902884472,2.203877820188149,2.2936195397102934
26.6,2.2458065453596947,2.1977066338831097,2.2886435375824266
26.7,2.240284206933997,2.191454034152147,2.2838632333384554
26.8,2.2347218876073787,2.185088919237312,2.278905650262363
26.9,2.2291195873798393,2.178759736811444,2.274017229362753
27,2.2234773062513793,2.1723756768705664,2.2688972144018584
27.1,2.2177950442219974,2.166059768657788,2.2638353381063516
27.2,2.212072801291696,2.1594733633700685,2.2585842138687293
27.3,2.2063105774604734,2.152899983445251,2.2536441145990738
27.4,2.2005083727283297,2.146359884848286,2.2484878903166075
27.5,2.1946661870952653,2.139772391288303,2.2432633609732258
27.6,2.1887840205612794,2.133273915221374,2.2379709212844388
27.7,2.182861873126374,2.126737166331531,2.2327593210816574
27.8,2.1768997447905467,2.120194093161687,2.2274287032841
27.9,2.1708976355537986,2.1136398909846474,2.2220348089158355
28,2.1648555454161302,2.1068550916822084,2.2166473795661634
28.1,2.15877347437754,2.1000364724152476,2.2111649165473186
28.2,2.15265142243803,2.093305169569998,2.2056130051332623
28.3,2.146489389597599,2.0865407022412525,2.2000138965896117
28.4,2.1402873758562464,2.0797501480326552,2.19454818199992
28.5,2.1340453812139737,2.07268047428538,2.1888531496535104
28.6,2.1277634056707795,2.0656392423390386,2.183085784670127
28.7,2.1214414492266647,2.0584665061571297,2.177525969637719
28.8,2.1150795118816292,2.051198675361194,2.1721013591773612
28.9,2.1086775936356728,2.0442428422539196,2.1666416149555516
29,2.1022356944887957,2.036768728626656,2.1609131048964323
29.1,2.095753814440997,2.0297178292082334,2.1551956608539125
29.2,2.089231953492278,2.0224348054071326,2.1494304177916312
29.3,2.0826701116426385,2.015134265623234,2.1437076382286278
29.4,2.0760682888920776,2.0078542949678977,2.137931156639023
29.5,2.069426485240596,2.000345749894491,2.132167821167833
29.6,2.062744700688193,1.9929941343476834,2.1262877467118595
29.7,2.0560229352348705,1.9855751025488662,2.120084394125474
29.8,2.0492611888806262,1.978146183873278,2.114084270183538
29.9,2.0424594616254614,1.9706151269181393,2.1080239701827743
30,2.0356177534693756,1.9630274491506192,2.1018708154291685
30.1,2.028736064412368,1.9552822163617343,2.095790352827457
30.2,2.021814394454441,1.9474364126690873,2.0895555195225013
30.3,2.014852743595593,1.9393214700908328,2.0833912062916164
30.4,2.0078511118358238,1.9313555196749197,2.077205861341576
30.5,2.0008094991751335,1.923200918904345,2.0709949309995728
30.6,1.9937279056135222,1.9148167507322675,2.06479562203901
30.7,1.9866063311509903,1.9066949800912583,2.0585326299379996
30.8,1.9794447757875382,1.8986696741436417,2.0523473673848156
30.9,1.9722432395231642,1.8906081065572806,2.0461567832775556
31,1.96500172235787,1.8826296258831947,2.0400534822930902
31.1,1.9577202242916543,1.8745928193615493,2.033995770840911
31.2,1.9503987453245184,1.866586398360746,2.027900665216728
31.3,1.9430372854564615,1.858247819375888,2.0214403889185233
31.4,1.9356358446874835,1.8501405227760306,2.014897648770658
31.5,1.928194423017585,1.841718448952501,2.0085633543665367
31.6,1.9207130204467653,1.8334359143625476,2.0021276258338068
31.7,1.913191636975025,1.8248976729925581,1.9956534271156265
31.8,1.9056302726023637,1.8161460482718503,1.9891538738328722
31.9,1.8980289273287816,1.8073166138036025,1.9825622051659113
32,1.8903876011542788,1.7982707819206927,1.9758550078297419
32.1,1.8827062940788548,1.789159907618202,1.9691347819485372
32.2,1.8749850061025102,1.7800985438053631,1.962518295543079
32.3,1.8672237372252447,1.7713100148542384,1.9558334194263658
32.4,1.8594224874470582,1.7623710356528326,1.9490816554265122
32.5,1.8515812567679513,1.753394831644245,1.9422839628401016
32.6,1.8437000451879226,1.744413389526733,1.9355021836843354
32.7,1.835778852706974,1.735358912637895,1.9286227482048468
32.8,1.8278176793251042,1.7261177818780327,1.9216867039931793
32.9,1.8198165250423135,1.7167618450706605,1.9148184685776721
33,1.8117753898586022,1.7074162961552792,1.9079432181254559
33.1,1.8036942737739694,1.6979669886328341,1.9010995997716684
