temp,mean,conf_lower,conf_upper
0,-0.004607276830923873,-0.005177025800779972,-0.00403857454480145
0.1,-0.004670012504977937,-0.005250547513964369,-0.004090407659954774
0.2,-0.004730303379097566,-0.0053214626782001435,-0.004139951446034011
0.3,-0.0047881577719336476,-0.005389780119582714,-0.0041872474783399985
0.4,-0.004843584022506216,-0.005455508685883329,-0.004232527133279289
0.5,-0.004896590490332172,-0.005518657246685738,-0.0042755529416493914
0.6,-0.004947185555554236,-0.005579220218555974,-0.00431633272974713
0.7,-0.004995377619071141,-0.005637208692042394,-0.004354874343137215
0.8,-0.005041175102669042,-0.005692642898767906,-0.004390843639690452
0.9,-0.005084586449154227,-0.005745531805038512,-0.004424239267334033
1,-0.005125620122487073,-0.005795884399707373,-0.0044553949201335714
1.1,-0.005164284607917315,-0.005843709694319872,-0.00448431868156299
1.2,-0.005200588412120626,-0.005889016723260075,-0.0045110435059740285
1.3,-0.005234540063336505,-0.005931814543898651,-0.004535886061077495
1.4,-0.005266148111507542,-0.005972112236742228,-0.004558533622398819
1.5,-0.005295421128420016,-0.006009918905584229,-0.004578994299701065
1.6,-0.005322367707845888,-0.006045243677657186,-0.0045972762235623995
1.7,-0.005346996465686189,-0.0060780957037865875,-0.004613387545511565
1.8,-0.0053693160401158116,-0.00610848415854623,-0.004627336438164679
1.9,-0.005389335091729764,-0.00613641824041514,-0.0046391310953633885
2,-0.005407062303690834,-0.006161907171936043,-0.004648779732314386
2.1,-0.005422506381878768,-0.006184960199875458,-0.004656290585730319
2.2,-0.00543567605504091,-0.00620558659538537,-0.004661671913972091
2.3,-0.005446580074944366,-0.006223795654166547,-0.004664931997192596
2.4,-0.005455227216529686,-0.006239596696633522,-0.004666079137481887
2.5,-0.005461626278066114,-0.006252999068081239,-0.004665121659013805
2.6,-0.005465786081308392,-0.0062640121388534056,-0.004662067908194083
2.7,-0.005467715471655165,-0.00627264530451256,-0.004656926253809963
2.8,-0.0054674233183089945,-0.006278907986011895,-0.004649705087181301
2.9,-0.005464918514438011,-0.006282809629868839,-0.004640412822313249
3,-0.005460209977339214,-0.006284359708340434,-0.0046290578960504584
3.1,-0.005453306648603466,-0.006283567719600534,-0.004615648768232896
3.2,-0.005444217494282169,-0.006280443187918842,-0.004600193921853231
3.3,-0.005432951505055683,-0.006274995663841814,-0.004582701863215867
3.4,-0.005419517696403473,-0.006267234724375447,-0.004563181122097608
3.5,-0.005403925108776051,-0.006257169973170005,-0.004541640251909991
3.6,-0.005386182807768693,-0.006244811040706674,-0.004518087829863308
3.7,-0.005366299884296985,-0.00623016758448619,-0.004492532457132352
3.8,-0.00534428545477422,-0.006213249289219474,-0.004464982759023876
3.9,-0.005320148661290647,-0.006194065867020283,-0.00443544738514583
4,-0.005293898671794641,-0.0061726270575999205,-0.0044039350095783775
4.1,-0.005432674363735616,-0.0063337263286447525,-0.004520035924074092
4.2,-0.005566593099416397,-0.0064896432638819855,-0.00463059438345358
4.3,-0.005695671721790925,-0.006640395763845839,-0.004736596750810232
4.4,-0.00581992711652227,-0.0067860017746502,-0.004838059115007438
4.5,-0.00593937621226301,-0.006926479288289883,-0.0049349976059582
4.6,-0.006054035980938437,-0.007061846342944987,-0.005027428394895289
4.7,-0.006163923438032622,-0.007192121023288306,-0.005115367694644121
4.8,-0.00626905564287737,-0.007317321460795907,-0.005198831759898389
4.9,-0.0063694496989441214,-0.007437465834060879,-0.005277836887498493
5,-0.006465122754138813,-0.007552572369110298,-0.005352399416712791
5.1,-0.006556092001099769,-0.007662659339725479,-0.0054225357295217295
5.2,-0.006642374677498641,-0.007767745067765523,-0.005488262250904876
5.3,-0.006723988066344442,-0.007867847923494226,-0.0055495954491308975
5.4,-0.006800949496290731,-0.007962986325910408,-0.005606551836050531
5.5,-0.006873276341945969,-0.008053178743081668,-0.005659147967392577
5.6,-0.0069409860241871095,-0.008138443692481661,-0.005707400443062958
5.7,-0.007004096010476457,-0.008218799741330902,-0.005751325907446903
5.8,-0.007062623815181839,-0.008294265506941192,-0.005790941049714271
5.9,-0.007116586999900156,-0.008364974812426883,-0.005826394175053817
6,-0.007166003173784314,-0.008432105851724736,-0.005857620768785699
6.1,-0.007210889993873631,-0.008494305613895348,-0.005884597809863898
6.2,-0.0072512651654277616,-0.008550371264931796,-0.005907342074142034
6.3,-0.0072871464422641415,-0.008601639002968847,-0.005927392888344716
6.4,-0.007318551627099072,-0.00864812773864136,-0.005943963814347341
6.5,-0.007345498571892433,-0.008689856435079442,-0.005956190582623059
6.6,-0.0073680051781961275,-0.00872684410828217,-0.0059641455681209155
6.7,-0.0073860893975062625,-0.008759338378667745,-0.0059680866127814055
6.8,-0.007399769231619165,-0.008788037826645306,-0.005968078264002043
6.9,-0.007409062732991264,-0.008812069289373706,-0.005964116779750719
7,-0.007413988005102877,-0.008831451968347948,-0.0059561496651357165
7.1,-0.007414563202826008,-0.008846548195808528,-0.005944130945693049
7.2,-0.007410806532796161,-0.008857054319581417,-0.005928077678644797
7.3,-0.007402736253788261,-0.008862989411871375,-0.005908006969835508
7.4,-0.007390370677096748,-0.008864572105013464,-0.005883952492048844
7.5,-0.007373728166919847,-0.00886144012176937,-0.0058542325111738645
7.6,-0.007352827140748168,-0.008853502316261317,-0.0058226009877872815
7.7,-0.007327686069757618,-0.008841138987493991,-0.005787077408392362
7.8,-0.007298323479206731,-0.008824131250747836,-0.005747629908970098
7.9,-0.007264757948838479,-0.008802650984274962,-0.005704275844695537
8,-0.007227008113286602,-0.00877671778965826,-0.005656615643826947
8.1,-0.007185092662486571,-0.008746077138048026,-0.005605062188303184
8.2,-0.007139030342091212,-0.008710648092070325,-0.005549648914197465
8.3,-0.0070888399538910785,-0.008671644762343073,-0.005490427138935645
8.4,-0.007034540356239658,-0.00862827001970309,-0.005427638014475955
8.5,-0.00697615046448345,-0.008580543751108435,-0.005359794991126664
8.6,-0.006913689251397022,-0.00852847142883774,-0.00528779414308946
8.7,-0.006847175747623116,-0.008472075237813412,-0.005212013169834338
8.8,-0.006776629042117848,-0.00841138654302102,-0.005132127980963631
8.9,-0.006702068282601155,-0.008346425483449178,-0.005048147311481236
9,-0.006623512676012457,-0.008277212260289046,-0.004960275227609154
9.1,-0.006540981488971733,-0.00820376713741916,-0.004868664681168598
9.2,-0.006454494048246023,-0.00812608382803917,-0.004773362469175525
9.3,-0.006364069741221441,-0.00804412913116466,-0.0046746955118418835
9.4,-0.006269728016380847,-0.007958002195521136,-0.004572361374179279
9.5,-0.006171488383787169,-0.007867723542298883,-0.004466378492741084
9.6,-0.006069370415572569,-0.007773313757866261,-0.00435676536252308
9.7,-0.00596339374643346,-0.007674793494289882,-0.0042435405374262386
9.8,-0.005853578074131514,-0.007572183469861049,-0.004126722630725038
9.9,-0.005739943160000765,-0.007465504469628627,-0.004006330315541422
10,-0.005622508829460835,-0.0073547773459383525,-0.0038812300467818434
10.1,-0.005501294972536486,-0.007240023018978808,-0.0037516494554586423
10.2,-0.005376321544383508,-0.0071212624773340566,-0.0036185355361246715
10.3,-0.0052476085658210965,-0.006998516778543101,-0.0034819075639106753
10.4,-0.005115176123870814,-0.006871807049666288,-0.0033417848783173663
10.5,-0.004979044372302225,-0.006741154487858721,-0.003198186883749821
10.6,-0.004839233532185346,-0.006606580360950854,-0.0030511330500586084
10.7,-0.004695763892449998,-0.006468106008036343,-0.0029006429130877167
10.8,-0.004548655810452172,-0.006325752840067293,-0.002746736075229393
10.9,-0.004397929712547568,-0.0061795423404570355,-0.0025894322059860676
11,-0.004243606094672338,-0.006029496065690509,-0.0024287510425393703
11.1,-0.004085705522931273,-0.005875635645942454,-0.0022647123903264937
11.2,-0.003924248634193438,-0.005717982785703474,-0.002097336123623912
11.3,-0.003759256136695471,-0.005556559264414145,-0.0019266681797052445
11.4,-0.003590748810652632,-0.005391386937107285,-0.0017528208196813384
11.5,-0.00341874750887774,-0.005222487735058532,-0.0015765728760518093
11.6,-0.00324327315740813,-0.005049805428071813,-0.0013994922399070617
11.7,-0.003064346756140787,-0.004870680860464653,-0.0012191970295547722
11.8,-0.0028819893794757674,-0.0046862659504371,-0.0010357070517025904
11.9,-0.002696222176968079,-0.004498179703776715,-8.490421833103668e-4
12,-0.0025070663739881365,-0.004308049663101268,-6.592223722020202e-4
12.1,-0.002314543272390965,-0.0041195729893281526,-4.6628429308301095e-4
12.2,-0.002118674251194318,-0.0039275435574492035,-2.6934740290030824e-4
12.3,-0.0019194807672657825,-0.003731983679452304,-6.929398735141395e-5
12.4,-0.0017169843560191863,-0.003532915748489633,1.3385562741379583e-4
12.5,-0.001511206632120267,-0.003330299421741503,3.400810410277592e-4
12.6,-0.0013021692902019776,-0.003120950848219188,5.54761660812946e-4
12.7,-0.001089894105589441,-0.0029113148678479115,7.739058823681803e-4
12.8,-8.744029350347604e-4,-0.002694491128590652,9.958682811883265e-4
12.9,-6.557177174619927e-4,-0.0024730425481829235,0.0012143476973846459
13,-4.338604747222141e-4,-0.0022480489671828545,0.0014358029847425218
13.1,-2.088533123591422e-4,-0.002019672548163871,0.0016601910226925727
13.2,1.9281579614703788e-5,-0.0017879369599314958,0.001887192034065744
13.3,2.5052192593104806e-4,-0.0015528659627733338,0.0021171040761894973
13.4,4.848453652678171e-4,-0.0013146645185301582,0.002349906152337366
13.5,7.222294494399987e-4,-0.0010732155434447239,0.0025855771853185725
13.6,9.626516425789849e-4,-8.285043517214869e-4,0.0028255789257191025
13.7,0.0012060893203003648,-5.805550541999882e-4,0.003070512538967115
13.8,0.0014525197688598562,-3.293918575050679e-4,0.0033182652499659025
13.9,0.0017019201842971184,-7.515422033541833e-5,0.0035687417091305293
14,0.0019542676715673868,1.7797847089524865e-4,0.003821984775391956
14.1,0.002209539243660453,4.322590583233218e-4,0.004077979439703137
14.2,0.002467711820706978,6.909455151726676e-4,0.004336703475132525
14.3,0.0027287622290717893,9.526963629721231e-4,0.00459661205923975
14.4,0.0029926672004338606,0.0012174873646500668,0.004858733496435595
14.5,0.0032594033708528937,0.0014849931942162737,0.00512036715614612
14.6,0.0035289472798220173,0.0017554114091031152,0.005384632912866057
14.7,0.003801275369306525,0.0020285690823845246,0.005651344532419861
14.8,0.004076363982768325,0.0023037622281161284,0.005920432244195266
14.9,0.004354189364175677,0.002583724621974829,0.006192022819718271
15,0.004634727656998247,0.0028650216329742916,0.0064659434243919765
15.1,0.004917954903186804,0.0031500820714263945,0.0067423395288376195
15.2,0.005203847042137564,0.0034388806438366707,0.00702430306410666
15.3,0.005492379909640764,0.003730486452957437,0.007310627144682564
15.4,0.005783529236813025,0.00402478435546573,0.007598110921914777
15.5,0.006077270649013473,0.004320180930780025,0.007885554458364915
15.6,0.006373579664742961,0.0046219047121982245,0.008173127490721091
15.7,0.006672431694526276,0.00492296174832345,0.008464037689672969
15.8,0.006973802039776937,0.005229859812394618,0.00876056139260692
15.9,0.007277665891644114,0.00553790768233195,0.009059212686997374
16,0.007583998329841485,0.0058485835938939905,0.009358606046524201
16.1,0.007892774321457482,0.006162135543015098,0.009661946801933281
16.2,0.008203968719746681,0.0064786378731770166,0.009967454210660611
16.3,0.008517556262901856,0.006796869818037067,0.010274871710057594
16.4,0.008833511572806265,0.007117621788329277,0.010582152464757064
16.5,0.009151809153765931,0.007440918692326975,0.010893004838213038
16.6,0.00947242339122121,0.007767621305953145,0.011211905542473503
16.7,0.009795328550437481,0.008098481353838068,0.011532315875999267
16.8,0.010120498775174357,0.008431929161696137,0.011852601780933473
16.9,0.010447908086332938,0.008764431470349637,0.012174973213125917
17,0.010777530380580805,0.009101470808180186,0.012499486312717757
17.1,0.01110933942895401,0.009438926565143295,0.012825969137320956
17.2,0.01144330887543581,0.009776331280987207,0.013154463012500816
17.3,0.01177941223551152,0.010118948998746801,0.013488523970840757
17.4,0.012117622894698869,0.010464087337232243,0.013816933803854752
17.5,0.01245791410705359,0.01081158831711494,0.014148655213805
17.6,0.012800258993649333,0.01115733751018316,0.014479813255035192
17.7,0.013144630541031658,0.011505032432433306,0.014812851877104018
17.8,0.013491001599645325,0.01185768032680197,0.015147745954633553
17.9,0.01383934488223431,0.012214219561373517,0.01549221944118189
18,0.014189632962214031,0.012574213183927267,0.015840825858270065
18.1,0.014541838272014994,0.012930045083002393,0.016192170134117542
18.2,0.014895933101397313,0.013291348728570981,0.016545297288186118
18.3,0.015251889595735459,0.013653120180119965,0.016898451575164702
18.4,0.015609679754272372,0.014017685606693715,0.017249805430636256
18.5,0.015969275428342485,0.0143871268625654,0.017601705958097798
18.6,0.016330648319562657,0.014757104699580763,0.017958625713050846
18.7,0.01669376997799051,0.015126532972922938,0.01831508133502517
18.8,0.0170586118002492,0.015495468103926569,0.018672544219514454
18.9,0.017425145027617942,0.015866213805102874,0.01903543098692551
19,0.017793340744087456,0.016241613250826684,0.019403460878883214
19.1,0.018163169874379406,0.016618231369601822,0.019767734642032766
19.2,0.018534603181929087,0.01699487023844509,0.020133499651974727
19.3,0.018907611266830403,0.017374853690319624,0.020500546578620917
19.4,0.019282164563742134,0.0177598538074079,0.02087085868038171
19.5,0.019658233339754777,0.018138103237286412,0.021238985432983158
19.6,0.020035787692216655,0.018522634317149837,0.021612323254743784
19.7,0.020414797546518614,0.018911919316792213,0.02198909650128315
19.8,0.020795232653836038,0.01930725544773725,0.0223601290711588
19.9,0.02117706258882718,0.019699384896576418,0.022736858207579373
20,0.02156025674728683,0.02009189234904777,0.023110393715217472
20.1,0.021944784343753885,0.02047924168981573,0.023485395399287644
20.2,0.02233061440907202,0.020868601823846263,0.023860177296784312
20.3,0.022717715787901983,0.021259331037823768,0.024236037084441532
20.4,0.023106057136184254,0.021651397585110456,0.024612922656516295
20.5,0.02349560691855113,0.022044832345069213,0.024993913406483447
20.6,0.023886333405686307,0.022442809593366378,0.025382383855805137
20.7,0.024278204671631207,0.022838874800951366,0.025773170163168
20.8,0.02467118859103627,0.02323991851495114,0.026167355081582015
20.9,0.025065252836355734,0.02364298364677936,0.02655634320768174
21,0.02546036487498468,0.024043643813236752,0.02694620951084754
21.1,0.025856491966336412,0.02444512644242165,0.027336921383198313
21.2,0.026253601158858844,0.024850996341831966,0.02772812234174071
21.3,0.026651659286988157,0.02525815882949015,0.028120144317462542
21.4,0.027050632968037853,0.02566634334630592,0.028509961983743975
21.5,0.02745048859902168,0.02607566774261209,0.028900145628234727
21.6,0.027851192353408355,0.026486577499888263,0.02928918329277623
21.7,0.028252710177806353,0.026896025620357235,0.029680881523731478
21.8,0.02865500778857673,0.027307674146638573,0.030089001015461594
21.9,0.029058050668371832,0.02771605489737631,0.030485825011019804
22,0.02946180406259808,0.028125357690257667,0.030879979021834602
22.1,0.029866232975800242,0.028532466132375044,0.03127416619279129
22.2,0.03027130216796535,0.028943441065682748,0.031672623107085136
22.3,0.03067697615074363,0.029351402422967597,0.032069606396041714
22.4,0.031083219183584098,0.029762057037259117,0.032477200432048485
22.5,0.03148999526978249,0.030177272204777235,0.03287915020926345
22.6,0.03189726815243855,0.030590919302159028,0.033276812313181615
22.7,0.032305001310320415,0.031006492052727288,0.03367483055960846
22.8,0.03271315795363309,0.03141621996222019,0.034073169109748565
22.9,0.03312170101968792,0.03182481232324947,0.034472170869713
23,0.03353059316847064,0.03223795289761349,0.03486989338813723
23.1,0.033939796778104124,0.032648011824471274,0.03527382374990536
23.2,0.03434927394020333,0.033055668276132516,0.03568826670411862
23.3,0.034758986455118615,0.03347186249023722,0.03610481206570686
23.4,0.035168895827064076,0.03388956361677714,0.0365124789435583
23.5,0.03557896325912741,0.03430351345002748,0.03691009334431159
23.6,0.03598914964815737,0.03471802593720531,0.03730594702766737
23.7,0.03639941557952501,0.0351337874496325,0.03770347321560096
23.8,0.03680972132175481,0.03554896071099583,0.03811050865134567
23.9,0.03722002682102104,0.03596273884076369,0.03852095199550417
24,0.03763029169550558,0.03638015030257905,0.0389277936554933
24.1,0.038040475229612125,0.036794480919427094,0.039326215926149134
24.2,0.038450536368032334,0.0372089880360001,0.0397312140984776
24.3,0.03886043370965896,0.037633101015012396,0.04013452120765535
24.4,0.03927012550134071,0.038054369236110754,0.0405459143338235
24.5,0.039679569631473684,0.03846315956902837,0.040951898985544674
24.6,0.04008872362342361,0.03887112086209578,0.041362894837034474
24.7,0.04049754462877338,0.03929001349639402,0.04177084463287648
24.8,0.040905989420389546,0.03970893478226381,0.042171753122280095
24.9,0.04131401438530173,0.04012416914161633,0.04257475519084973
25,0.04172157551738827,0.040538392477212616,0.04297612145826126
25.1,0.042128628409861243,0.04094534939969389,0.04337726555461665
25.2,0.0425351282475439,0.041355865113435065,0.04377773338124966
25.3,0.04294102979893291,0.04176886025381131,0.044181875155886674
25.4,0.04334628740803763,0.04218090241585169,0.044578378302041276
25.5,0.04375085498598848,0.042591194680286805,0.044977857533568734
25.6,0.04415468600240572,0.04299747777245243,0.0453758866164742
25.7,0.044557733476519965,0.043401331814189474,0.045766947407291515
25.8,0.04495994996803504,0.043808127513631015,0.04615598674439589
25.9,0.045361287567723556,0.04421582490985056,0.0465517741788115
26,0.0457616978877452,0.0446240871257077,0.04695418836046947
26.1,0.046161132051676865,0.04502521495075258,0.04735368651841963
26.2,0.04655954068424379,0.04542749208463924,0.04775650042265367
26.3,0.04695687390074009,0.045825605449658316,0.04815784911012817
26.4,0.047353081296126254,0.046227491183145245,0.04855401661997481
26.5,0.047748111933791304,0.04663042866457014,0.04893976251303546
26.6,0.04814191433396571,0.04702945760246696,0.049329691283924476
26.7,0.048534436461771635,0.04742334058246818,0.04971871144943614
26.8,0.04892562571489534,0.04781641963615401,0.050102568570970445
26.9,0.04931542891086653,0.048208235488701234,0.05049499382555791
27,0.04970379227392859,0.048598382576515047,0.050886521276340586
27.1,0.05009066142148225,0.04897789530260417,0.05127108888853978
27.2,0.05047598135008531,0.049363604960046666,0.05165379342228335
27.3,0.050859696420989385,0.04975195239831555,0.05204031734239238
27.4,0.05124175034519373,0.05014209893782588,0.0524205436816647
27.5,0.05162208616799582,0.050522289386922624,0.05279274560020347
27.6,0.0520006462530163,0.05090268106515532,0.05317583996492944
27.7,0.0523773722656755,0.05127952017649008,0.05355379752006813
27.8,0.052752205156097284,0.05166095003135654,0.05392267213737368
27.9,0.05312508514141437,0.052037456132707674,0.054294226046542965
28,0.05349595168744838,0.052412434639519334,0.05466302937908546
28.1,0.053864743489735925,0.05278069209539511,0.05502817792100065
28.2,0.05423139845387075,0.053147554056021645,0.05538959581669571
28.3,0.05459585367513013,0.053512349537518,0.055750265610352887
28.4,0.05495804541735201,0.05387501692664439,0.056113102536195725
28.5,0.055317909091027205,0.054234507485976136,0.05647199956126327
28.6,0.05567537923056927,0.054590418075912986,0.05682790626932147
28.7,0.05603038947072226,0.05494405989731069,0.05718587891515878
28.8,0.056382872522064365,0.055295369301125684,0.057543899039320216
28.9,0.05673276014556254,0.055643897523900275,0.05789950884671966
29,0.057079983126131155,0.05598624266060864,0.05825226356703439
29.1,0.057424471245144354,0.05632861691686217,0.058602111228757935
