temp,mean,conf_lower,conf_upper
0,-0.00844223441477791,-0.010594196870799061,-0.0062406917384994496
0.1,-0.008504505806311723,-0.010681783663362292,-0.006278606863785474
0.2,-0.008562898167477033,-0.010764844756210465,-0.006313353730665014
0.3,-0.008617429559505967,-0.010843401129072255,-0.006344946720040643
0.4,-0.00866811810416263,-0.010917473832766467,-0.006373400258852417
0.5,-0.0087149819842639,-0.01098708398982365,-0.006398728820453627
0.6,-0.008758039444207022,-0.01105225279511611,-0.006420946924991253
0.7,-0.008797308790504194,-0.011113001516496272,-0.0064400691397911115
0.8,-0.008832808392324119,-0.011169351495443675,-0.006457336072516182
0.9,-0.008864556682040834,-0.011221324147720695,-0.006471875269330306
1,-0.008892572155789738,-0.011268940964037138,-0.006483440841119076
1.1,-0.008916873374031133,-0.011312223510723933,-0.006492258578673585
1.2,-0.008937478962121286,-0.011351193430415999,-0.006500977696700772
1.3,-0.008954407610891174,-0.011382847313182806,-0.006507365624124359
1.4,-0.0089676780772331,-0.011410016128146074,-0.006510909709470975
1.5,-0.008977309184695238,-0.011432857485680221,-0.006511623857967535
1.6,-0.008983319824084315,-0.011451394321344118,-0.0065046292926608925
1.7,-0.008985728954076544,-0.011465649656051347,-0.006492237304371683
1.8,-0.008984555601836964,-0.011475646596880882,-0.0064768761818491585
1.9,-0.008979818863647336,-0.01148140833789955,-0.006458561934096571
2,-0.00897153790554277,-0.011487423546718377,-0.00643788095219981
2.1,-0.008959731963957194,-0.011490407522957775,-0.006417236915343229
2.2,-0.008944420346377904,-0.011489350639751069,-0.006393762020784908
2.3,-0.008925622432009285,-0.011484274971925144,-0.006367471355906435
2.4,-0.008903357672445914,-0.011475202677354357,-0.006338630244249932
2.5,-0.0088776455923552,-0.011461982807855093,-0.006307092126744614
2.6,-0.008848505790169794,-0.011444794726902744,-0.006272790728464816
2.7,-0.008815957938789842,-0.011423667032609209,-0.006235741264961749
2.8,-0.008780021786295384,-0.011392498129288766,-0.006195959006606404
2.9,-0.008740717156669011,-0.011355931059432896,-0.00615477846009874
3,-0.008698063950529017,-0.011315352636124407,-0.006112126161302921
3.1,-0.008652082145873216,-0.011270787573796131,-0.006066840249109785
3.2,-0.008602791798833652,-0.011222260688031541,-0.006018935806161935
3.3,-0.00855021304444241,-0.01116979689660664,-0.005968427970692043
3.4,-0.008494366097408711,-0.011113421220548063,-0.005906284545487893
3.5,-0.008435271252907552,-0.011056173627682062,-0.005841217674954037
3.6,-0.0083729488873801,-0.01099656370218278,-0.005779553701533762
3.7,-0.008307419459346045,-0.01093319156075765,-0.005715286737628397
3.8,-0.008238703510228184,-0.010866081475730937,-0.00564843274169049
3.9,-0.00816682166518947,-0.010795257820788415,-0.0055790077333996565
4,-0.008091794633982735,-0.010719956188191023,-0.0055070277942444335
4.1,-0.008013643211813401,-0.010639158880944773,-0.005432509068112434
4.2,-0.00793238828021538,-0.010554674462940377,-0.0053554677618889495
4.3,-0.007848050807940477,-0.010466528082875074,-0.005276329501708519
4.4,-0.0077606518518615305,-0.010374744997745959,-0.005194763798225153
4.5,-0.007670212557889578,-0.01027935057400984,-0.005110731748057978
4.6,-0.007576754161905363,-0.0101803702887618,-0.005024249719750923
4.7,-0.007480297990705419,-0.010077829730932764,-0.004935334147421042
4.8,-0.007380865462963089,-0.009971754602506573,-0.0048367170367021334
4.9,-0.0072784780902047505,-0.009862170719756903,-0.004734736437204311
5,-0.007173157477801561,-0.009748972759340814,-0.004630268986852313
5.1,-0.00734297241575643,-0.009973276989727886,-0.00473634697299344
5.2,-0.007505182871273932,-0.010192000461475958,-0.004836110190388192
5.3,-0.007659826313408004,-0.010408048927512605,-0.00492959050582947
5.4,-0.007806940350344279,-0.010615396091796778,-0.005016819904545861
5.5,-0.007946562730763199,-0.010812203320449893,-0.005104120731595058
5.6,-0.008078731345223902,-0.010993313105815127,-0.005179746812121394
5.7,-0.008203484227569228,-0.01116574291728625,-0.005248484273018916
5.8,-0.008320859556352313,-0.011329298103870272,-0.0053110989011150465
5.9,-0.008430895656285223,-0.011490856279647655,-0.005367623254308556
6,-0.008533630999710043,-0.01164687882952942,-0.0054180900157601
6.1,-0.008629104208092937,-0.01179415182870977,-0.005464030190799208
6.2,-0.008717354053541628,-0.01193292479623074,-0.005518123166257646
6.3,-0.00879841946034678,-0.012057260646920143,-0.005566411152117092
6.4,-0.008872339506547833,-0.012180394576385836,-0.00559696246808403
6.5,-0.008939153425523746,-0.012287888664717524,-0.0056152892648185515
6.6,-0.008998900607609231,-0.012383595818436972,-0.005627828637184434
6.7,-0.009051620601736992,-0.012470819616958203,-0.00564506936894777
6.8,-0.009097353117106537,-0.012549717704182107,-0.005658680050594106
6.9,-0.00913613802488017,-0.012620757256637683,-0.00566674365398907
7,-0.009168015359906669,-0.012685101433212977,-0.005669291180369833
7.1,-0.009193025322473354,-0.012742921705402345,-0.005666837272967714
7.2,-0.00921120828008711,-0.01279945245039089,-0.005644903606904201
7.3,-0.00922260476928501,-0.012848774268318208,-0.005615564065909723
7.4,-0.009227255497475238,-0.012890341803086298,-0.005580837171785105
7.5,-0.009225201344808883,-0.012915822845746553,-0.005544500290050582
7.6,-0.009216483366083454,-0.012940016316860585,-0.005521283932617594
7.7,-0.009201142792678682,-0.012958115877591535,-0.005493309260024207
7.8,-0.009179221034525415,-0.012968416450099416,-0.005460290070449593
7.9,-0.009150759682108395,-0.01297106483776522,-0.005422359678442863
8,-0.009115800508503573,-0.01296610923530567,-0.005379264342108148
8.1,-0.009074385471450888,-0.012953598052097719,-0.005330096334929857
8.2,-0.009026556715463267,-0.012933579914663276,-0.005262778791398653
8.3,-0.008972356573972676,-0.012906103669198362,-0.005190219992334971
8.4,-0.008911827571514173,-0.012871218384147719,-0.005112070675890182
8.5,-0.008845012425948703,-0.012828973352825927,-0.005021184702792411
8.6,-0.00877195405072575,-0.012779410748204236,-0.0049379199062226185
8.7,-0.008692695557186636,-0.01271824870885225,-0.004842657061678104
8.8,-0.008607280256909508,-0.01263701658472507,-0.004738234926959029
8.9,-0.008515751664097052,-0.012548495965611584,-0.004616996473110476
9,-0.008418153498007851,-0.012452602439796488,-0.004491180676416422
9.1,-0.0083145296854326,-0.01234907246655257,-0.004360640339784831
9.2,-0.008204924363216178,-0.01223841316101408,-0.004234043640736921
9.3,-0.008089381880826705,-0.012120679398183358,-0.004126262458470359
9.4,-0.007967946802972864,-0.011995926334051225,-0.004013706819988616
9.5,-0.00784066391227049,-0.011881397396059671,-0.0038894456155099018
9.6,-0.007707578211959897,-0.011762845124595647,-0.003743001788806147
9.7,-0.007568734928675015,-0.011637128468488472,-0.003591806672696233
9.8,-0.007424179515265801,-0.01149722610934168,-0.0034358997347330015
9.9,-0.007273957653675228,-0.011335857914962033,-0.0032754256978516976
10,-0.007118115257872197,-0.01118770158842045,-0.0031201406299185773
10.1,-0.0069566984768419495,-0.011038629956795042,-0.002964692088513942
10.2,-0.0067897536976353635,-0.010868496534003482,-0.0027980925348735346
10.3,-0.006617327548478706,-0.010691950356584573,-0.002629381012299634
10.4,-0.006439466901945488,-0.010516351828049286,-0.002458732847728069
10.5,-0.006256218878191956,-0.0103417049191921,-0.0022661142211193646
10.6,-0.006067630848258016,-0.010160079859592153,-0.0020811354347958916
10.7,-0.005873750437435332,-0.009972290866550352,-0.0018630112506593305
10.8,-0.005674625528704325,-0.009788615557280046,-0.0016507306270485593
10.9,-0.005470304266242107,-0.00959998025335346,-0.0014482139441059578
11,-0.005260835059003058,-0.009395962052651526,-0.0012532516830380137
11.1,-0.005046266584374307,-0.009174197097113292,-0.0010239093525864027
11.2,-0.004826647791908007,-0.008946167219111215,-7.930504201936047e-4
11.3,-0.0046020279071325365,-0.008709718266015075,-5.695070746802389e-4
11.4,-0.004372456435445051,-0.008474705205857242,-3.4857338725494905e-4
11.5,-0.00413798316608735,-0.008236172831465594,-1.243938512362503e-4
11.6,-0.003898658176207775,-0.007991684982196216,1.0961180614358409e-4
11.7,-0.003654531835011324,-0.007721581145125604,3.4898223099233145e-4
11.8,-0.0034056548080006414,-0.007441745938891569,5.914766903076006e-4
11.9,-0.0031520780613105764,-0.0071800900418692755,8.381161597425654e-4
12,-0.002893852866138861,-0.006930470274971361,0.001088915571811535
12.1,-0.002631030803275946,-0.0066766203098976825,0.0013285460115655297
12.2,-0.002363663767736745,-0.006404319550389028,0.0015759884503068417
12.3,-0.0020918039734973944,-0.006122188701041609,0.0018525677442157605
12.4,-0.001815503958340253,-0.005855513000749598,0.002126982036569124
12.5,-0.001534816588810192,-0.005576959035138362,0.0023849950432564245
12.6,-0.0012497950652858789,-0.005283415595073763,0.002655922319022488
12.7,-9.604929271692375e-4,-0.004963795104879353,0.0029344616265819046
12.8,-6.669640581969186e-4,-0.004677706483027495,0.0032164422803471465
12.9,-3.692626918776181e-4,-0.004360039178081513,0.003513137841968949
13,-6.74434170589433e-5,-0.004042866958281365,0.0038189921107481904
13.1,2.384388163718231e-4,-0.003720347274598839,0.004112729782535738
13.2,5.483286916490061e-4,-0.003390917663402819,0.004418613615628109
13.3,8.621705191474236e-4,-0.0030671250786851387,0.004716630014474746
13.4,0.0011799082302541876,-0.0027368038049120757,0.005026527566929283
13.5,0.0015014853710888423,-0.0023959990529554484,0.005366602963325753
13.6,0.0018268450960666743,-0.0020842355045946285,0.005703545085427061
13.7,0.0021559301613002443,-0.001760246389686932,0.006038891432308989
13.8,0.0024886829178336605,-0.001423313101884904,0.0063707816637586494
13.9,0.0028250453047039634,-0.0010684954587153773,0.006705349420789478
14,0.003164958841824028,-7.053383446411522e-4,0.0070425362165672765
14.1,0.003508364622680605,-3.403046254876335e-4,0.007381658476612693
14.2,0.003855203306841545,7.185468955152319e-6,0.007723210583017444
14.3,0.004205415112265375,3.649696046050671e-4,0.008066353862134806
14.4,0.004558939807406439,7.31383251172087e-4,0.008416294827871634
14.5,0.004915716703108618,0.0010992727760187147,0.008774606622800066
14.6,0.0052756846442798795,0.0014893612414274941,0.009132153717930948
14.7,0.005638782001340183,0.0018642099257979317,0.009469248305806663
14.8,0.006004946661434478,0.0022514586306675907,0.009828169230503463
14.9,0.0063741160194022315,0.0026338419119119466,0.010183883518276926
15,0.006746226968494941,0.003014869074062808,0.010557593298534668
15.1,0.0071212158908319926,0.003398515077530544,0.01093981911144081
15.2,0.0074990186475855335,0.0037811321684654044,0.011313028159857793
15.3,0.007879570568884137,0.004165184503752842,0.011687194801434165
15.4,0.00826280644342453,0.004550351265736696,0.012061912426108443
15.5,0.008648660507780749,0.004945374104746365,0.012438863547413755
15.6,0.009037066435398616,0.005340571407586842,0.012810958811505666
15.7,0.00942795732526389,0.005741747320206341,0.013197702802368923
15.8,0.009821265690231196,0.006138352432638088,0.013586807164052715
15.9,0.010216923445000328,0.006524943950033359,0.01397558112398013
16,0.010614861893726336,0.0069170736281264095,0.014380065970181637
16.1,0.011015011717248408,0.007317855422153104,0.014777212058438821
16.2,0.011417302959922439,0.007704225958282879,0.015152080085718708
16.3,0.011821665016041252,0.008116266431975003,0.015520684956182865
16.4,0.012228026615825324,0.008520470526420626,0.015914748167559067
16.5,0.012636315810966612,0.008930896063702837,0.016307497432107895
16.6,0.013046459959706538,0.009346632909791711,0.016723533210240435
16.7,0.013458385711428806,0.009754541083834604,0.01712619880218294
16.8,0.013872018990746285,0.010181255163873214,0.01752010563510353
16.9,0.014287284981060293,0.010608015202922184,0.017929659716096318
17,0.014704108107569603,0.011036233224527887,0.01834898016332463
17.1,0.015122412019704951,0.011448087907178333,0.01874858959299694
17.2,0.0155421195729639,0.011864170652160607,0.019171930334854002
17.3,0.015963152810119334,0.012284568279637042,0.019595958458481527
17.4,0.016385432941773335,0.01270623770385152,0.020023937170088373
17.5,0.016808880326226995,0.01313908882858223,0.020448310925174712
17.6,0.01723341444863455,0.013567130140822704,0.020856592834019246
17.7,0.017658953899408966,0.013999042353495202,0.021267530302113105
17.8,0.018085416351843953,0.01441818161504545,0.021672001566754084
17.9,0.018512718538915243,0.014835575996161789,0.022084613303668964
18,0.018940776229222415,0.015254581371041881,0.022495186789211946
18.1,0.019369504202029438,0.015675125848149122,0.02289212379544408
18.2,0.019798816221360427,0.016097136833679394,0.02330133043031612
18.3,0.020228625009104034,0.01652054101590521,0.02372918251405064
18.4,0.02065884221707719,0.01694526434900359,0.024154663203517595
18.5,0.021089378397996114,0.017372238485152222,0.024576525472077653
18.6,0.021520142975298993,0.017801718594816728,0.024994592862802232
18.7,0.021951044211761542,0.018236900299733003,0.02541427829718841
18.8,0.0223819891768429,0.018677461906294164,0.02583689276753351
18.9,0.02281288371269516,0.019124270692365785,0.02627001402319224
19,0.023243632398765958,0.019578694104337324,0.026700576232912967
19.1,0.02367413851491851,0.020036763292055806,0.02712853185583644
19.2,0.0241043040029889,0.02049784740995898,0.027545979057530513
19.3,0.02453402942669493,0.02094630023699216,0.02793880984554867
19.4,0.024963213929805064,0.02139556361313874,0.028334977868255014
19.5,0.025391755192470087,0.021829687176235613,0.028753802448272293
19.6,0.025819549385612914,0.022260484865778852,0.029175957163136212
19.7,0.026246491123265322,0.022692264521362696,0.029599827988463605
19.8,0.02667247341273219,0.023140634072071987,0.030009575755638753
19.9,0.027097387602455357,0.023600318377674727,0.03042945435558793
20,0.027521123327440368,0.024029070150098388,0.030833814395022426
20.1,0.027943568452098968,0.024461608891372964,0.031231443255223795
20.2,0.02836460901034981,0.024913708258990423,0.031634832724525164
20.3,0.028784129142807802,0.025365571057380427,0.03204848333677254
20.4,0.029202011030879813,0.025801837491998714,0.03242148955665889
20.5,0.02961813482757079,0.02624568919588728,0.03282790135833305
20.6,0.030032378584788667,0.0266830758086288,0.03321914488348001
20.7,0.030444618176920325,0.027100810937749666,0.033635604103919796
20.8,0.030854727220432743,0.027523450362809447,0.034038231366112025
20.9,0.0312625769892332,0.027945724902839364,0.034419720934075214
21,0.031668036325501615,0.0283769368408178,0.034796592643736336
21.1,0.03207097154568333,0.028796281144749882,0.03519550833652958
21.2,0.03247124634130546,0.029210319475587623,0.035577256558055104
21.3,0.032868721674250874,0.02962619365342084,0.035969822564147866
21.4,0.03326325566609219,0.030063830947138385,0.03633963821703079
21.5,0.03365470348105394,0.03049306086889202,0.03670532717589578
21.6,0.03404291720213242,0.030922229591587552,0.03705839167944425
21.7,0.03442774569986037,0.03135240184014261,0.03741039435967082
21.8,0.0348090344931572,0.0317707211238921,0.03776942277910458
21.9,0.035186625601653206,0.03214906293848535,0.03812770457701701
22,0.035560357388819075,0.03251176346333293,0.038457958532213274
22.1,0.03593006439516767,0.032896772264545,0.03878836816765729
22.2,0.03629557716072447,0.03329892607165785,0.03914386772462934
22.3,0.036656722035883334,0.03371485820593473,0.039521545423619193
22.4,0.037013320979675836,0.03407226337533538,0.03988725351378264
22.5,0.03736519134438377,0.03445388786218749,0.04019823808285353
22.6,0.03771214564531297,0.03480570030974015,0.04053065427287128
22.7,0.0380539913144226,0.03518494228586349,0.04085873743521896
22.8,0.03839053043636397,0.03553168630152996,0.041163379133714394
22.9,0.03872155946532478,0.03590032955919313,0.04147913854883966
23,0.03904686892089769,0.03621755517827964,0.04181546079611537
23.1,0.03936624306098935,0.03657270553307736,0.04213219986031003
23.2,0.03967945952955904,0.03687915917688271,0.042439193461819534
23.3,0.03998628897671568,0.037183416030989076,0.04272026344750457
23.4,0.040286494648406786,0.037447586865764666,0.04299682907876294
23.5,0.04057983194259622,0.03771638955537791,0.04332303197065546
23.6,0.04086604792844083,0.037956813667634405,0.0436462344423698
23.7,0.04114488082453411,0.038203976413600835,0.04396423687952086
23.8,0.04141605943177562,0.03844260602099715,0.0442581098777318
23.9,0.041679302515837124,0.03868121421867682,0.0445340633755714
24,0.04193431813351796,0.03890546634388708,0.044811374362747784
24.1,0.04218080289649313,0.039103016146125213,0.04507999769967778
24.2,0.04241844116504125,0.039290861323707446,0.045342000138795344
24.3,0.042646904163268065,0.03948571774803275,0.045594097273528617
24.4,0.04286584900608745,0.039671173936057055,0.04586191502117823
24.5,0.04307491762674755,0.039837814170345064,0.046154644097589854
24.6,0.04327373559194964,0.04000908208382957,0.04638683906221314
24.7,0.04346191078954801,0.0401027802464861,0.046606399739913415
24.8,0.0436390319713688,0.04015705651287513,0.046853725847219294
24.9,0.043804667130761275,0.04025067129464158,0.04706528226873199
25,0.04395836169098637,0.04027584447533396,0.04726424431948775
25.1,0.044099636476320335,0.04021471243094772,0.047514432829003514
25.2,0.04422798543263318,0.040163509731259726,0.04778210061396779
25.3,0.04434287305797237,0.04014638900485438,0.04805300006365567
25.4,0.044443731496060124,0.04008188655814587,0.04827416644548364
25.5,0.044529957236232834,0.03997159149604396,0.04851861128928646
25.6,0.044600907351737204,0.03982083007568901,0.048700095955960004
25.7,0.04465589519382697,0.03964627098224523,0.04888186729893029
25.8,0.044694185440948775,0.039450451770788125,0.04911061867815057
25.9,0.04471498837936429,0.039174237046699416,0.04928830992552315
26,0.04471745326234006,0.038876056729287935,0.04950993295329713
26.1,0.04470066055752579,0.038541401053193085,0.049726708012077875
26.2,0.04466361284355121,0.038121880394250095,0.04993105875083152
26.3,0.044605224053334565,0.0376466534508819,0.05010380203148351
26.4,0.0445243066776612,0.03710510570486798,0.050264669093152935
26.5,0.04441955643048983,0.03654234902464508,0.050446941993136214
26.6,0.04428953372593479,0.03592286970702836,0.050619103858748155
26.7,0.04413264110944211,0.03519928715823489,0.0507659833553479
26.8,0.043947095497666885,0.03432230405617402,0.050856740769904
26.9,0.04373089367546627,0.03331005814573841,0.05094298323046175
27,0.04348176891606996,0.0321297489775457,0.0510451066424414
27.1,0.04319713573963843,0.030756966716632566,0.05115393669680757
27.2,0.04287401855622468,0.02910039875332481,0.05119916065372955
27.3,0.04250895800156401,0.028043803323887038,0.05127053047016533
27.4,0.04209788573803126,0.027124153085997867,0.051345153466945875
27.5,0.041635953593096714,0.028101451630728448,0.051406762619186794
27.6,0.041117294727498276,0.026820267408843253,0.05144073540335105
27.7,0.04053468032521774,0.026619868992209535,0.05147472977097719
27.8,0.039879009493145975,0.025956345214272883,0.05150229183427889
27.9,0.03913852054851595,0.026392828788895647,0.05153189244892399
28,0.03829751042112376,0.02560026032502334,0.05154551188896585
28.1,0.03733412336580805,0.02481094207771897,0.051559629628257206
28.2,0.036216213813580096,0.024425531987267858,0.05181619676639873
28.3,0.03489271134736041,0.024686262084914506,0.052036636472093604
28.4,0.033272471109620096,0.024645106792555917,0.052380086931167476
28.5,0.03115683504610027,0.024838044365216538,0.05278008250620887
28.6,0.027854736677926067,0.024533733608353377,0.05306180069166121
28.7,NA,NA,NA
28.8,NA,NA,NA
28.9,NA,NA,NA
29,NA,NA,NA
29.1,NA,NA,NA
29.2,NA,NA,NA
29.3,NA,NA,NA
29.4,NA,NA,NA
29.5,NA,NA,NA
29.6,NA,NA,NA
29.7,NA,NA,NA
29.8,NA,NA,NA
29.9,NA,NA,NA
30,NA,NA,NA
30.1,NA,NA,NA
30.2,NA,NA,NA
30.3,NA,NA,NA
30.4,NA,NA,NA
30.5,NA,NA,NA
30.6,NA,NA,NA
30.7,NA,NA,NA
30.8,NA,NA,NA
30.9,NA,NA,NA
31,NA,NA,NA
31.1,NA,NA,NA
31.2,NA,NA,NA
31.3,NA,NA,NA
31.4,NA,NA,NA
31.5,NA,NA,NA
31.6,NA,NA,NA
31.7,NA,NA,NA
