temp,mean,conf_lower,conf_upper
0,2.3889058619852985,2.09703954426537,2.657440485712032
0.1,2.390343397292183,2.0997833134729955,2.6577080092750123
0.2,2.391761313736824,2.1025648145364313,2.6580423510214617
0.3,2.3931596113192235,2.105317976298352,2.6583642126106586
0.4,2.39453829003938,2.108047205681233,2.658673594042604
0.5,2.395897349897295,2.1105725204367287,2.6587401571631837
0.6,2.3972367908929666,2.1130287753842207,2.658771697942875
0.7,2.398556613026396,2.1158193150416635,2.658792271274972
0.8,2.399856816297584,2.1183629375072783,2.6588992146621866
0.9,2.4011374007065287,2.1208517266825666,2.659033486751441
1,2.402398366253231,2.1233150335641513,2.659268820491064
1.1,2.403639712937691,2.125767061550427,2.659535318448099
1.2,2.4048614407599094,2.128191758320906,2.659787668057135
1.3,2.4060635497198852,2.1305891238755876,2.6600201777749737
1.4,2.407246039817618,2.1329922230966463,2.6600035447666857
1.5,2.4084089110531086,2.1355303602683566,2.659763560560933
1.6,2.409552163426357,2.1379998508552753,2.659650478768188
1.7,2.4106757969373627,2.140400159041672,2.6597809725992714
1.8,2.4117798115861264,2.1425085393078613,2.6596769292598514
1.9,2.412864207372648,2.144648372067725,2.659712977701875
2,2.413928984296927,2.1469505598413177,2.659733756055795
2.1,2.4149741423589632,2.149229857918728,2.6597965251687183
2.2,2.415999681558757,2.1514878610617654,2.659843809770185
2.3,2.4170056018963093,2.1534307279804126,2.660092180749788
2.4,2.417991903371618,2.155448691716354,2.660331690996002
2.5,2.4189585859846856,2.1576229255428134,2.6603648988822726
2.6,2.4199056497355103,2.159855997036768,2.660385090195966
2.7,2.4208330946240926,2.161877555764601,2.660392264937081
2.8,2.421740920650432,2.163948534941179,2.6603864231056185
2.9,2.42262912781453,2.165990928009226,2.6603675647015783
3,2.423497716116385,2.168009649128069,2.6603227978597643
3.1,2.4243466855559976,2.17001583012236,2.660254191693242
3.2,2.4251760361333683,2.171939001126243,2.660044494673589
3.3,2.4259857678484966,2.173374899669125,2.659645009850271
3.4,2.426775880701382,2.1753337307085547,2.659223725205407
3.5,2.4275463746920254,2.1773273439597087,2.65878974918488
3.6,2.4282972498204263,2.1785996452388394,2.658746256176488
3.7,2.429028506086585,2.1800885510050487,2.6584785959194948
3.8,2.429740143490501,2.1819574535694075,2.65824709866723
3.9,2.430432162032175,2.1833377698598815,2.6580690263802866
4,2.4311045617116065,2.184742368169702,2.657983020159396
4.1,2.4317573425287953,2.1863492538572205,2.657800991874658
4.2,2.432390504483742,2.187556195921598,2.6575946593933235
4.3,2.4330040475764463,2.1887394539962184,2.657391429296384
4.4,2.4335979718069085,2.1904340513677543,2.657310748890973
4.5,2.434172277175128,2.1919075285775347,2.6572866645711075
4.6,2.434726963681105,2.1930345172969608,2.6571916719959443
4.7,2.4352620313248403,2.1945317147674213,2.657129023447183
4.8,2.4357774801063323,2.19628881135949,2.6567275156750556
4.9,2.436273310025583,2.1976816750466046,2.6563054426506865
5,2.4367495210825902,2.19903687800701,2.656168422692374
5.1,2.437206113277356,2.2000956345631932,2.6560161639497277
5.2,2.437643086609879,2.2012288891021843,2.6558322736440374
5.3,2.438060441080159,2.2023655909334896,2.655666783080407
5.4,2.4384581766881976,2.203716287776211,2.6554830695356184
5.5,2.4388362934339938,2.204346228257303,2.655439145312958
5.6,2.439194791317547,2.205312205601107,2.6553661350965307
5.7,2.439533670338858,2.2059616495499066,2.6554122624478436
5.8,2.439852930497927,2.2066032388979115,2.6551153614388543
5.9,2.440152571794753,2.207249854148464,2.654891695477777
6,2.4404325942293372,2.2078696714539916,2.654756172412818
6.1,2.440692997801679,2.2087321450891673,2.6545383631435593
6.2,2.4409337825117783,2.2092786648273073,2.6543433298458288
6.3,2.4411549483596353,2.2099661411825013,2.653945179784352
6.4,2.44135649534525,2.210621283495675,2.6534894502668305
6.5,2.4415384234686224,2.211256009595874,2.653136658455635
6.6,2.4417007327297515,2.211627614103308,2.6528168283700113
6.7,2.4418434231286392,2.211916982423893,2.6524100333793346
6.8,2.4419664946652846,2.2123099948549982,2.6519556399767015
6.9,2.442069947339687,2.2131971378248485,2.651792271225223
7,2.4421537811518474,2.2140558335811953,2.651777190286458
7.1,2.445028851765615,2.219612803166048,2.652464129132653
7.2,2.447864684654898,2.2246755338735746,2.653075611994753
7.3,2.4506612798196965,2.2298459621889246,2.6536524709122884
7.4,2.45341863726001,2.234472656409382,2.654199578021376
7.5,2.456136756975839,2.2390751858240403,2.6547286158494874
7.6,2.458815638967183,2.2438212374053563,2.655372172858039
7.7,2.4614552832340424,2.248614456456669,2.6559294541085468
7.8,2.4640556897764174,2.2530680131360894,2.6568090511438243
7.9,2.466616858594307,2.2574676233764754,2.6574470229133302
8,2.4691387896877126,2.2619812192724345,2.658069279798582
8.1,2.4716214830566328,2.2668079054928936,2.6587227839275824
8.2,2.4740649387010687,2.2714527452897,2.659421896421752
8.3,2.4764691566210195,2.275801787361867,2.659831948167528
8.4,2.4788341368164857,2.280218433498541,2.660420399333108
8.5,2.4811598792874667,2.2844331485823957,2.66099051618772
8.6,2.483446384033964,2.2891119140047453,2.6615326778301363
8.7,2.4856936510559757,2.2932542864839194,2.6623787909789822
8.8,2.4879016803535032,2.297214140093061,2.6629214974877953
8.9,2.490070471926545,2.30115216977506,2.663453195740688
9,2.4922000257751034,2.305128899193286,2.6641613537121174
9.1,2.4942903418991764,2.3093694493158834,2.6646653442366084
9.2,2.4963414202987644,2.313637726888432,2.665142843743456
9.3,2.498353260973868,2.3175771540710968,2.6656743676785606
9.4,2.5003258639244867,2.3212102991919945,2.666353461558336
9.5,2.5022592291506207,2.324997723656732,2.666995708288072
9.6,2.50415335665227,2.328804912027379,2.66756390130884
9.7,2.5060082464294346,2.3323958756595076,2.668028113106442
9.8,2.5078238984821146,2.3359157985771444,2.6684070220846463
9.9,2.50960031281031,2.339605735925616,2.6687440305850116
10,2.51133748941402,2.343126472057653,2.669243257139416
10.1,2.5130354282932457,2.3466984697073245,2.669856997968221
10.2,2.514694129447986,2.34986169575237,2.670357148466091
10.3,2.5163135928782427,2.3528015271254707,2.6710601024829668
10.4,2.517893818584014,2.3560088592336084,2.6713537777329504
10.5,2.5194348065653003,2.358813166093406,2.6715409409964392
10.6,2.5209365568221025,2.3619040700344884,2.6717853953565736
10.7,2.522399069354419,2.3646202926741573,2.6720043695410443
10.8,2.523822344162252,2.3677522710723444,2.6721269468964186
10.9,2.5252063812455994,2.370888454162493,2.672169304597993
11,2.5265511806044625,2.373861929143916,2.672240849488994
11.1,2.5278567422388405,2.3766034331462516,2.672578318024791
11.2,2.529123066148734,2.3793501411472278,2.6728871210738503
11.3,2.530350152334143,2.3822835484756997,2.672986476971494
11.4,2.5315380007950665,2.385184311925335,2.6731748525197494
11.5,2.532686611531506,2.3880395886796553,2.6733216487145848
11.6,2.5337959845434606,2.3908781212579715,2.673296014547467
11.7,2.53486611983093,2.393809476675534,2.6732514074615414
11.8,2.535897017393915,2.3966330807862533,2.673087228276964
11.9,2.5368886772324153,2.398998050791588,2.6730562818910255
12,2.537841099346431,2.4016784307674985,2.672784622755368
12.1,2.5387542837359613,2.4042960285079173,2.6726423652861477
12.2,2.5396282304010076,2.4067539438716805,2.672385980562316
12.3,2.5404629393415687,2.408958937400605,2.672007922136229
12.4,2.541258410557645,2.4112432793381515,2.6713818902086324
12.5,2.542014644049237,2.413263825751269,2.670820072964985
12.6,2.542731639816344,2.4152952623495105,2.67017129828648
12.7,2.5434093978589667,2.4173176490598483,2.6694806042629042
12.8,2.544047918177104,2.419298379390548,2.668761432178066
12.9,2.544647200770757,2.421237453341609,2.667993096256177
13,2.545207245639925,2.423145933322335,2.667004451371555
13.1,2.5457280527846082,2.425013860994217,2.666016034493176
13.2,2.5462096222048065,2.4268396805729924,2.6651631080853337
13.3,2.54665195390052,2.4286244340401253,2.6642055070225164
13.4,2.5470550478717495,2.4303701788753838,2.6632554368214105
13.5,2.5474189041184943,2.4320669019129233,2.662245889271762
13.6,2.5477435226407534,2.433824184326817,2.6610492616214048
13.7,2.5480289034385284,2.435606910554732,2.660004946947742
13.8,2.5482750465118187,2.4373491631681983,2.6589448986241386
13.9,2.548481951860624,2.4390504354924993,2.6578446735688224
14,2.5486496194849444,2.440514402229569,2.656610847945407
14.1,2.5487780493847807,2.4419994590123775,2.6554391263844694
14.2,2.5488672415601314,2.443408647006259,2.6545304843046305
14.3,2.548917196010998,2.444690983102533,2.6536572004480217
14.4,2.54892791273738,2.44614425158422,2.6527409778003155
14.5,2.5488993917392766,2.4471620871685484,2.6515514782073994
14.6,2.5488316330166887,2.447973539547549,2.6502964976397507
14.7,2.5487246365696166,2.4492930411663867,2.649000090990663
14.8,2.5485784023980593,2.450386902177031,2.647704082539111
14.9,2.548392930502017,2.4513940572148205,2.6463925736048255
15,2.5481682208814904,2.4523093394620115,2.6451517225304046
15.1,2.5479042735364787,2.453307925925965,2.643874538941051
15.2,2.5476010884669824,2.4542054531985067,2.6423867715492184
15.3,2.5472586656730014,2.4550555977079336,2.641165558651087
15.4,2.5468770051545357,2.4558883362923263,2.6396355910206557
15.5,2.5464561069115854,2.4568380657092312,2.637698472939296
15.6,2.5459959709441504,2.457702288353338,2.6358621955231687
15.7,2.54549659725223,2.4584814145505502,2.634243431983095
15.8,2.5449579858358256,2.458938893242956,2.6323640695247423
15.9,2.5443801366949357,2.459405835956688,2.6305987371000583
16,2.543763049829562,2.4600228123612227,2.628792072839496
16.1,2.543106725239703,2.4606045777466488,2.627001337590161
16.2,2.542411162925359,2.461152726874776,2.625226667922824
16.3,2.5416763628865304,2.4613734184555867,2.623714228535726
16.4,2.5409023251232172,2.461656885530765,2.62220777042237
16.5,2.5400890496354194,2.462084301373535,2.6203381004575608
16.6,2.539236536423137,2.462556802047574,2.618296251460933
16.7,2.5383447854863697,2.462841242173658,2.616236730328819
16.8,2.537413796825117,2.4631885991128932,2.6142991879522257
16.9,2.536443570439381,2.4634745448094275,2.6123343766068325
17,2.535434106329159,2.463725809588695,2.6103156689847347
17.1,2.5343854044944525,2.4639222441235415,2.6082571796533687
17.2,2.5332974649352615,2.464047014774299,2.606010212571923
17.3,2.532170287651586,2.4636720160368295,2.6035600190176984
17.4,2.531003872643425,2.4638066050700402,2.6010600622869307
17.5,2.52979821991078,2.4638725844017055,2.5985194508255036
17.6,2.5285533294536497,2.4631678326634714,2.596341359021213
17.7,2.527269201272035,2.462843602962528,2.593911136613326
17.8,2.5259458353659356,2.462954447145971,2.591616785360891
17.9,2.524583231735351,2.46229458605674,2.589086489557176
18,2.523181390380282,2.461605243994767,2.586746667256374
18.1,2.521740311300728,2.461264619985858,2.5843069430784333
18.2,2.52025999449669,2.4605398445844724,2.5818548352682265
18.3,2.5187404399681665,2.4596044962125214,2.5792720826486804
18.4,2.5171816477151587,2.459454629446814,2.5769144048352404
18.5,2.515583617737666,2.4589199611074655,2.5744702617224853
18.6,2.5139463500356882,2.4579976812784796,2.5719230385042327
18.7,2.512269844609226,2.4574212951396204,2.5695219415889943
18.8,2.510554101458279,2.457081697931179,2.5665810762734296
18.9,2.5087991205828475,2.456207072543875,2.563771351343993
19,2.5070049019829304,2.4553750036445163,2.561051274987297
19.1,2.50517144565853,2.4541837002829565,2.5584235715146235
19.2,2.503298751609644,2.4531758488024007,2.5555759364799022
19.3,2.5013868198362728,2.452075931438098,2.5527980523618523
19.4,2.499435650338418,2.4514409587923254,2.5501954618477622
19.5,2.497445243116078,2.449919800394191,2.547922142746451
19.6,2.4954155981692527,2.4486096564014854,2.545276666826271
19.7,2.493346715497943,2.446869580093793,2.543031181135055
19.8,2.491238595102148,2.4450914093409244,2.540363170037817
19.9,2.489091236981869,2.4433470006109563,2.5376521580691014
20,2.4869046411371056,2.4413921684725937,2.5350123178135604
20.1,2.4846788075678568,2.43983008649361,2.532302992329273
20.2,2.4824137362741237,2.437945438401733,2.529415639826923
20.3,2.480109427255905,2.4361676159624714,2.526527775671495
20.4,2.4777658805132026,2.4342352286872746,2.5236445796189777
20.5,2.4753830960460155,2.432275775483343,2.520859077439762
20.6,2.472961073854343,2.430174170400452,2.5180095653417505
20.7,2.4704998139381855,2.4278657188148873,2.515049381097758
20.8,2.4679993162975435,2.425722181582354,2.5120151456254924
20.9,2.465459580932418,2.4239877490119888,2.5092505408818395
21,2.462880607842806,2.4222078192831304,2.5067127605311628
21.1,2.4602623970287096,2.4202537366170045,2.5036419648424433
21.2,2.457604948490129,2.4175783605397876,2.5005387129999255
21.3,2.4549082622270637,2.415080090767145,2.4973814000243175
21.4,2.4521723382395137,2.4118118988756807,2.4941844952415666
21.5,2.4493971765274782,2.408853021082774,2.490978994473183
21.6,2.4465827770909585,2.406108536814779,2.487886249643564
21.7,2.443729139929954,2.4034891924253228,2.4847089827251536
21.8,2.440836265044465,2.400737730859311,2.4818446582791074
21.9,2.437904152434491,2.397947524755261,2.4787021999339407
22,2.4349328021000325,2.3952155544068425,2.475576898547164
22.1,2.431922214041089,2.3923321093949674,2.4727953553011437
22.2,2.428872388257661,2.3892462577438898,2.4696528132975555
22.3,2.4257833247497476,2.38577975578513,2.4659953007299347
22.4,2.4226550235173496,2.3826446770058824,2.4628071324308936
22.5,2.4194874845604675,2.3792964259017024,2.45995457055331
22.6,2.4162807078791007,2.3761205492399977,2.4568284288848563
22.7,2.4130346934732487,2.372309826134473,2.4542153882857516
22.8,2.4097494413429117,2.3687568538563277,2.451083936058286
22.9,2.4064249514880904,2.364614748376911,2.4481095701917925
23,2.403061223908784,2.3610317625912485,2.4452939777981744
23.1,2.399658258604993,2.357366986355177,2.4424120063051076
23.2,2.396216055576718,2.354070267296595,2.43925110357723
23.3,2.3927346148239574,2.35021345469975,2.4359977759605607
23.4,2.389213936346712,2.346066734021707,2.4329693459906343
23.5,2.3856540201449823,2.3418917755858737,2.4298951879627224
23.6,2.382054866218768,2.3381146933931607,2.4269559218014125
23.7,2.378416474568069,2.333891078765074,2.423747365381918
23.8,2.3747388451928844,2.329364630039677,2.4205195587555792
23.9,2.371021978093216,2.3252055714094073,2.4176790337291143
24,2.367265873269062,2.3208403210303263,2.4147175510043803
24.1,2.3634705307204236,2.316513342352775,2.41186362324808
24.2,2.359635950447301,2.3122168709290696,2.4088638898466064
24.3,2.355762132449693,2.3077637259630874,2.4057435092516433
24.4,2.351849076727601,2.303357101459734,2.402265525219238
24.5,2.347896783281023,2.298873409503392,2.399035118846358
24.6,2.343905252109961,2.294563928609791,2.3956889854179284
24.7,2.3398744832144143,2.289537362284687,2.3920066071238253
24.8,2.335804476594383,2.284811575604842,2.388452455482538
24.9,2.3316952322498667,2.2800940848264224,2.3849685904151228
25,2.3275467501808658,2.275017655869963,2.381483582642901
25.1,2.3233590303873797,2.2698639692626212,2.3783527004490677
25.2,2.31913207286941,2.2646356204104174,2.375119855092139
25.3,2.3148658776269544,2.25963508158937,2.371690943034758
25.4,2.3105604446600143,2.2542449427425937,2.368231474064753
25.5,2.3062157739685896,2.248750047551134,2.364575631233535
25.6,2.30183186555268,2.2433614499098398,2.3609080823270405
25.7,2.297408719412286,2.2381632491684984,2.35743300706529
25.8,2.2929463355474073,2.2327973119932434,2.353895216685144
25.9,2.2884447139580435,2.2270182690498004,2.350486975756821
26,2.283903854644195,2.2217203232096,2.3467936947576558
26.1,2.2793237576058623,2.2166020314107184,2.343133282946109
26.2,2.2747044228430444,2.210910836626526,2.3395979892887153
26.3,2.2700458503557415,2.2050067807411446,2.3358736293577462
26.4,2.2653480401439543,2.199238154596154,2.3320507297114386
26.5,2.260610992207682,2.1936174557547305,2.3283205651810497
26.6,2.255834706546925,2.187559857131879,2.324436523873028
26.7,2.2510191831616835,2.1814525794537922,2.32041301668505
26.8,2.246164422051957,2.175684541199511,2.316401535001224
26.9,2.2412704232177463,2.169964128981194,2.3127845201065482
27,2.2363371866590507,2.163973741010422,2.308862279644341
27.1,2.23136471237587,2.1577070996638446,2.305080890174134
27.2,2.2263530003682046,2.1518179763404737,2.301140924140519
27.3,2.221302050636054,2.1458948011534718,2.2969659736130197
27.4,2.21621186317942,2.1399363094146193,2.292680390563106
27.5,2.2110824379983,2.1339324879580723,2.288732244498371
27.6,2.205913775092696,2.1278697429186866,2.284380879273792
27.7,2.200705874462607,2.1216100799280095,2.2801778081414477
27.8,2.1954587361080335,2.1151415441305566,2.2760368111585856
27.9,2.1901723600289746,2.108449619908767,2.272030971342226
28,2.1848467462254315,2.101800362840092,2.267890333137298
28.1,2.1794818946974033,2.0951976647291413,2.26350630320684
28.2,2.174077805444891,2.0888049223709038,2.2593039455785435
28.3,2.1686344784678937,2.082287342397389,2.254725356440257
28.4,2.1631519137664115,2.07595286559239,2.2505784120510333
28.5,2.157630111340444,2.069361966861111,2.246125476371703
28.6,2.152069071189992,2.0623906005931594,2.241615257824782
28.7,2.146468793315056,2.055387619747501,2.2373822774419208
28.8,2.140829277715635,2.0483762572130204,2.232941223026801
28.9,2.135150524391729,2.041303363723554,2.2285898884502107
29,2.129432533343338,2.0341344214647354,2.224198094226792
29.1,2.1236753045704626,2.0272061686552525,2.2197242628812432
29.2,2.1178788380731026,2.0203561260291627,2.2150418947247754
29.3,2.112043133851258,2.0131936240760147,2.21041285295259
29.4,2.106168191904928,2.006144455773843,2.206044924298401
29.5,2.100254012234114,1.9990505178534457,2.2014816016912095
29.6,2.094300594838815,1.9918128300310247,2.196589820232724
29.7,2.088307939719031,1.984305755354316,2.1916409278532223
29.8,2.0822760468747625,1.9767385028202455,2.186654365302105
29.9,2.076204916306009,1.9691188035410634,2.1816301325793725
30,2.070094548012771,1.9614563246661925,2.1765682296850235
30.1,2.063944941995048,1.9538421472592642,2.1714686566190595
30.2,2.057756098252841,1.9465450791297976,2.1663890252227094
30.3,2.0515280167861483,1.9392249193286513,2.161358929304621
30.4,2.045260697594971,1.9314614973252304,2.156332066969824
30.5,2.0389541406793095,1.9239667634057642,2.151136686719676
30.6,2.032608346039163,1.9166222316664916,2.1458952115113576
30.7,2.0262233136745316,1.9092890785720584,2.1408139109945807
30.8,2.0197990435854156,1.9019446865112064,2.1358583532137256
30.9,2.013335535771815,1.894150862840735,2.1308792904444704
31,2.0068327902337293,1.8862292463840216,2.1258629872441075
31.1,2.000290806971159,1.8782361400673193,2.120557362568535
31.2,1.9937095859841039,1.8702251801168157,2.115030661373874
31.3,1.9870891272725644,1.862172523498967,2.1094776861744684
31.4,1.9804294308365402,1.8540773224151312,2.103883912284436
31.5,1.9737304966760307,1.846049506072147,2.098249339703777
31.6,1.9669923247910366,1.8379715293300247,2.09259745660783
31.7,1.960214915181558,1.8300300100858764,2.087274928870597
31.8,1.9533982678475947,1.8221161078757273,2.0820421764061137
31.9,1.9465423827891466,1.813845376425623,2.076510121547054
32,1.9396472600062136,1.8053168221150342,2.0710665412468794
32.1,1.9327128994987959,1.796905804575131,2.065550567704934
32.2,1.9257393012668937,1.7884816853612124,2.0598585834248087
32.3,1.9187264653105065,1.7798417832618068,2.054020213414562
32.4,1.9116743916296346,1.7714471295670493,2.048263902993733
32.5,1.9045830802242776,1.7630113930100695,2.0423526100398544
32.6,1.8974525310944363,1.754539299161655,2.0363972240875867
32.7,1.8902827442401104,1.7460152313392387,2.0305436992637427
32.8,1.8830737196612997,1.7374557984020362,2.0244773441147497
32.9,1.8758254573580038,1.728702595746498,2.018550773455938
33,1.8685379573302234,1.7200021169558064,2.012416877155621
33.1,1.8612112195779584,1.7113014159970499,2.0063786713754714
