temp,mean,conf_lower,conf_upper
0,0.8067422574212827,0.6914530315675387,0.9173591570019883
0.1,0.8083281661732336,0.6936945356942743,0.9183995064568089
0.2,0.8099040997788727,0.6959227411787172,0.9194326556065474
0.3,0.8114700582382001,0.6981385709463124,0.9204586044512038
0.4,0.8130260415512157,0.7003408960850666,0.921477352990778
0.5,0.8145720497179196,0.70253178656095,0.9224889012252702
0.6,0.816108082738312,0.7047116162935732,0.9234932491546802
0.7,0.8176341406123926,0.7068778988718424,0.9244903967790081
0.8,0.8191502233401615,0.7090185115145641,0.9254876030664594
0.9,0.8206563309216186,0.7110538575447457,0.9264792912763842
1,0.8221524633567641,0.7130765309369754,0.9274636108250798
1.1,0.8236386206455979,0.7150865316912532,0.9284405617125461
1.2,0.8251148027881199,0.7170838598075793,0.929410143938783
1.3,0.8265810097843302,0.7191241721975831,0.9303723575037907
1.4,0.828037241634229,0.7212005850104553,0.9313272024075689
1.5,0.8294834983378159,0.7232633077607246,0.9322346617412824
1.6,0.8309197798950911,0.7253123404483908,0.9331463990810234
1.7,0.8323460863060546,0.7273476830734542,0.9340749806649558
1.8,0.8337624175707065,0.7293552318283296,0.9349963347040735
1.9,0.8351687736890466,0.7312990308525877,0.9359104611983772
2,0.836565154661075,0.7332298403349046,0.9368173601478664
2.1,0.8397369721649766,0.7375595238438725,0.9389002854778483
2.2,0.8428888393762548,0.7418469381630353,0.9409687965726474
2.3,0.8460207562949098,0.7460988479230837,0.9430228934322644
2.4,0.8491327229209411,0.750292234684451,0.9450928377632875
2.5,0.8522247392543489,0.7544600740258718,0.9471022129298511
2.6,0.8552968052951335,0.7586055214021534,0.949111727641109
2.7,0.8583489210432946,0.7627283995800893,0.951116379703639
2.8,0.8613810864988326,0.7668256704807506,0.9531065539651324
2.9,0.8643933016617469,0.7708973341041369,0.9550822504255894
3,0.8673855665320378,0.7749433904502485,0.9570398106379194
3.1,0.8703578811097052,0.7789638395190854,0.9589826047728307
3.2,0.8733102453947494,0.7829672701811552,0.9609159578786401
3.3,0.8762426593871702,0.7870458940785934,0.9628367099997985
3.4,0.8791551230869675,0.7910980396101411,0.9647429692668373
3.5,0.8820476364941412,0.7951237067757986,0.9666323953665621
3.6,0.8849201996086917,0.799090339589603,0.9685067472197628
3.7,0.8877728124306189,0.802939757756109,0.9703666212719269
3.8,0.8906054749599225,0.8067673992018709,0.9722120175230546
3.9,0.8934181871966028,0.810637592358094,0.9740423157301608
4,0.8962109491406596,0.8145125862132445,0.9758522135432655
4.1,0.898983760792093,0.8183622251686307,0.9776476835064736
4.2,0.9017366221509031,0.8221879516360879,0.9794287256197853
4.3,0.9044695332170897,0.8259887622210449,0.9811953398832008
4.4,0.9071824939906529,0.8297635280115082,0.9829439983927594
4.5,0.9098755044715926,0.833514318973448,0.9846756872788538
4.6,0.912548564659909,0.8372121435239849,0.9863288055672883
4.7,0.9152016745556021,0.8409123401710323,0.9879272606310971
4.8,0.9178348341586716,0.8445738446103963,0.9895196204618175
4.9,0.9204480434691178,0.8480779836709739,0.9911472555370049
5,0.9230413024869404,0.8515573897975854,0.9928318370977995
5.1,0.9256146112121397,0.8550120629902311,0.9945002484260104
5.2,0.9281679696447157,0.858442003248911,0.9961539800465239
5.3,0.9307013777846682,0.8619028674852545,0.9977930319593407
5.4,0.9332148356319974,0.8654150720612674,0.9994174041644601
5.5,0.935708343186703,0.8689632434041615,1.0009870797530471
5.6,0.9381819004487852,0.8724845751188078,1.0025537223011938
5.7,0.9406355074182442,0.8759790672052066,1.0041192776884562
5.8,0.9430691640950797,0.8794326158557726,1.0056377298744572
5.9,0.9454828704792917,0.882795439682315,1.007177906227867
6,0.9478766265708802,0.8861453059188203,1.008779859449568
6.1,0.9502504323698455,0.8894692742416858,1.0103045792486853
6.2,0.9526042878761876,0.8927673446509113,1.0118129088705454
6.3,0.9549381930899059,0.8960297156281021,1.0133011762880428
6.4,0.957252148011001,0.8992333687336918,1.014774900486116
6.5,0.9595461526394724,0.902346013177768,1.016222248462566
6.6,0.9618202069753206,0.9054166515905513,1.0176837403747583
6.7,0.9640743110185456,0.9084681995907148,1.019120876634556
6.8,0.9663084647691469,0.9114981108142459,1.0205419041105745
6.9,0.96852266822712485,0.9144918235697133,1.0219450799997647
7,0.9707169213924792,0.917507144737954,1.0233292572731671
7.1,0.9728912242652105,0.9204987466833654,1.0246985953645202
7.2,0.9750455768453183,0.9234345787487186,1.0260605967302734
7.3,0.9771799791328025,0.9264474718370366,1.027430301276722
7.4,0.9792944311276636,0.9294343528923737,1.028768547827616
7.5,0.9813889328299009,0.9323999715296664,1.0300634700081721
7.6,0.983463484239515,0.9353300324199025,1.0314201863972203
7.7,0.9855180853565059,0.9381120003713802,1.0327369052314745
7.8,0.987552736180873,0.940836247103298,1.0340012808791987
7.9,0.989567436712617,0.9435686948214682,1.0351924562786614
8,0.9915621869517373,0.9462879519666196,1.0364198895362238
8.1,0.9935369868982344,0.9490732662994902,1.037648372622031
8.2,0.9954918365521082,0.9518349605565415,1.0389008560437123
8.3,0.9974267359133582,0.9545353403297343,1.0400783156590143
8.4,0.9993416849819852,0.9571764812460761,1.0412411002944877
8.5,1.0012366837579885,0.9599000374199202,1.0423354927715942
8.6,1.0031117322413685,0.9625310036429288,1.0434530263151045
8.7,1.0049668304321253,0.9651188536396771,1.0445231164542397
8.8,1.0068019783302584,0.9676283063983621,1.0455402597633507
8.9,1.008617175935768,0.9700745416260768,1.0465909848040023
9,1.0104124232486542,0.972491559178198,1.0477499697366486
9.1,1.0121877202689173,0.9748786698992857,1.0489403233269385
9.2,1.013943066996557,0.9772478475011808,1.0500440062264569
9.3,1.015678463431573,0.9795549870695441,1.051141600370205
9.4,1.0173939095739657,0.9819509658309551,1.0521616023048639
9.5,1.019089405423735,0.9843182959373049,1.0531639002437994
9.6,1.020764950980881,0.98665229737809,1.0542043220152193
9.7,1.0224205462454035,0.9890067722432406,1.055139057458101
9.8,1.0240561912173025,0.9912768811769792,1.0561113659826489
9.9,1.0256718858965783,0.9935612293048885,1.0571232336382264
10,1.0272676302832302,0.995797195759926,1.0581892517889715
10.1,1.0288434243772593,0.9979799311021584,1.059199598969367
10.2,1.030399268178665,1.0002669598694585,1.0602413958106416
10.3,1.0319351616874468,1.0024488090029393,1.0612881941525947
10.4,1.0334511049036055,1.0045378911425533,1.0623079560188553
10.5,1.0349470978271404,1.0066159941336128,1.0631536284652852
10.6,1.0364231404580524,1.008551205784399,1.0641099811040404
10.7,1.037879232796341,1.0105009206242475,1.0649842072707003
10.8,1.0393153748420056,1.0124578375182902,1.065949254725594
10.9,1.0407315665950474,1.0143400291804243,1.0668927848695198
11,1.0421278080554655,1.016226835014824,1.067835689540734
11.1,1.0435040992232603,1.0180409080786468,1.068722179614595
11.2,1.0448604400984318,1.0199542168531122,1.069542992405023
11.3,1.0461968306809797,1.021644378276974,1.0704568559235264
11.4,1.0475132709709043,1.0234162359720258,1.0712955851837656
11.5,1.0488097609682052,1.0251433744294152,1.0720940278254438
11.6,1.0500863006728829,1.0268982985075152,1.0729648778991185
11.7,1.0513428900849375,1.028504616731894,1.073885688476594
11.8,1.052579529204368,1.0300917920506674,1.074739730817651
11.9,1.053796218031176,1.0316810058152668,1.075545467106601
12,1.0549929565653597,1.0332706640397613,1.0763042402690837
12.1,1.0561697448069203,1.034854913261508,1.077058797786767
12.2,1.057326582755858,1.0364149712560606,1.0778894851274867
12.3,1.0584634704121716,1.038049828663537,1.0786488180977731
12.4,1.059580407775862,1.039521005213132,1.0793942759261745
12.5,1.060677394846929,1.0410447375042087,1.0800700737917874
12.6,1.0617544316253724,1.0425943967572158,1.0808233717975755
12.7,1.062811518111193,1.044065600161689,1.0815666993532314
12.8,1.0638486543043895,1.0452748113430017,1.0822740697390574
12.9,1.064865840204963,1.0465142942353975,1.082920245899972
13,1.0658630758129128,1.047845245326119,1.0836241902873522
13.1,1.0668403611282395,1.049169935507957,1.0843857725384338
13.2,1.0677976961509428,1.0504706021741463,1.0850738007144514
13.3,1.0687350808810225,1.0516682193546063,1.0856851211797272
13.4,1.0696525153184788,1.0529114783216662,1.08620605447048
13.5,1.0705499994633116,1.0539861383100595,1.086832917717245
13.6,1.071427533315521,1.0551514656970853,1.0874482932273821
13.7,1.0722851168751073,1.0563074898598979,1.087926383185212
13.8,1.07312275014207,1.0573546580283155,1.088548409121537
13.9,1.0739404331164093,1.0585248714653948,1.0891861427120717
14,1.074738165798125,1.0596105908231013,1.0898072345606076
14.1,1.0755159481872176,1.0605133592591351,1.090398655532567
14.2,1.076273780283687,1.0615020707853002,1.0910677207549009
14.3,1.0770116620875325,1.0623689326694812,1.0917484598716425
14.4,1.0777295935987545,1.063295238787278,1.0924120403926292
14.5,1.0784275748173533,1.0642819089494118,1.0929141646474054
14.6,1.079105605743329,1.0651499677754863,1.0934428694893774
14.7,1.079763686376681,1.0660327231606956,1.0938526615106836
14.8,1.0804018167174094,1.0667059661832012,1.0944273263967887
14.9,1.0810199967655147,1.0674627223691115,1.0949581573023228
15,1.0816182265209964,1.0682159751623974,1.0955090646164711
15.1,1.082196505983855,1.0688903496728348,1.0959978144013052
15.2,1.0827548351540899,1.0696870235460887,1.0964136876494093
15.3,1.0832932140317013,1.0702025003331865,1.096897466600364
15.4,1.0838116426166895,1.0707328913648104,1.0973194517855522
15.5,1.0843101209090542,1.0713373789252327,1.0977233773242232
15.6,1.0847886489087957,1.0719172356136766,1.0981180017162298
15.7,1.0852472266159139,1.0724014534276063,1.0985832662421502
15.8,1.085685854030408,1.0729258859045676,1.0990147877935013
15.9,1.0861045311522792,1.073347428004348,1.099500839207875
16,1.0865032579815268,1.0737254677682775,1.09988922008047
16.1,1.0868820345181511,1.0740849981518492,1.1002193236783353
16.2,1.0872408607621522,1.0744113265940798,1.1005566319157145
16.3,1.0875797367135294,1.0748223015528722,1.1008776946168082
16.4,1.0878986623722835,1.0751162033764312,1.101175606930788
16.5,1.0881976377384142,1.0753413513843548,1.10145561692938
16.6,1.0884766628119213,1.0756503657396697,1.1017765380522928
16.7,1.0887357375928053,1.0759764012888815,1.1019634020530815
16.8,1.0889748620810655,1.0761114992981087,1.1021470341789166
16.9,1.0891940362767025,1.0762434239047605,1.102294845115303
17,1.0893932601797163,1.076465889172706,1.102474103483699
17.1,1.0895725337901065,1.0766731187812069,1.1026762266397658
17.2,1.0897318571078731,1.0768577293600563,1.1028623840112841
17.3,1.0898712301330167,1.0770008137395417,1.1029687257468335
17.4,1.0899906528655365,1.0771908421956637,1.103042344876005
17.5,1.0900901253054331,1.0772109936149394,1.1031759476937464
17.6,1.090169647452706,1.0773319249199025,1.1032097337826956
17.7,1.0902292193073562,1.0774020579270691,1.1032022003613442
17.8,1.0902688408693821,1.0774376260820477,1.1033130731406011
17.9,1.0902885121387853,1.0775553229095198,1.1033786546543785
18,1.0902882331155648,1.0776286632036849,1.1034875215043232
18.1,1.0902680037997208,1.077531620362537,1.103457158340468
18.2,1.0902278241912535,1.07738467594301,1.1034759857635845
18.3,1.0901676942901628,1.0772796975930645,1.1034889345950387
18.4,1.0900876140964484,1.0771996195178404,1.103490071321489
18.5,1.089987583610111,1.077080463957373,1.103496122140732
18.6,1.08986760283115,1.076998904400928,1.1034368480683612
18.7,1.0897276717595656,1.0769087101051773,1.1032757959221524
18.8,1.089567790395358,1.0765851902373083,1.1031677520634435
18.9,1.0893879587385267,1.0763861953602962,1.1030146054430177
19,1.0891881767890719,1.0761785418348344,1.1028886346328088
19.1,1.0889684445469943,1.0759472010498694,1.1027460028991336
19.2,1.088728762012293,1.0756769333049396,1.1025758281007252
19.3,1.088469129184968,1.0753559326256112,1.1023804824860093
19.4,1.0881895460650197,1.0749769639099185,1.1021726149898505
19.5,1.087890012652448,1.0746718061817635,1.1019824823342956
19.6,1.0875705289472528,1.0742661709689179,1.1016488713952632
19.7,1.0872310949494346,1.0738864284925063,1.101355068843887
19.8,1.0868717106589927,1.0735387984983054,1.1010362042165025
19.9,1.0864923760759275,1.07312444723622,1.1007390870499738
20,1.0860930912002387,1.0726524761135239,1.1004034668145737
20.1,1.0856738560319266,1.0721686919961324,1.1000109122522126
20.2,1.0852346705709912,1.0717246854513265,1.0996313015063497
20.3,1.0847755348174322,1.0712369829873665,1.099181999527653
20.4,1.0842964487712496,1.0707342830031124,1.0987201337287278
20.5,1.083797412432444,1.070154975337028,1.0982462956365553
20.6,1.0832784258010149,1.0695598496150454,1.0978179490808055
20.7,1.0827394888769626,1.0690501440602662,1.0972628890880716
20.8,1.0821806016602864,1.0685027941771195,1.0966922713533558
20.9,1.081601764150987,1.0679032471976024,1.0960788896565605
21,1.081002976349064,1.0672779820834868,1.0954896419290598
21.1,1.080384238254518,1.066619881302079,1.0949031155840498
21.2,1.0797455498673485,1.0659497015197248,1.0942810785798578
21.3,1.0790869111875554,1.0652834362864732,1.0936406112003199
21.4,1.078408322215139,1.0646790487502733,1.092982514692732
21.5,1.077709782950099,1.063911829483489,1.0922447393838541
21.6,1.0769912933924357,1.0631344288143394,1.0914610043025048
21.7,1.0762528535421492,1.0623700409427994,1.0906987321325494
21.8,1.0754944633992394,1.0615627558357388,1.0900112515228435
21.9,1.0747161229637057,1.0608274294498035,1.0892055042564972
22,1.0739178322355487,1.0601533949912447,1.088489903290443
22.1,1.0730995912147687,1.0594037884813974,1.0876664330736296
22.2,1.0722613999013648,1.0585891189950773,1.0867800458286958
22.3,1.071403258295338,1.0578260163217363,1.085856794578116
22.4,1.0705251663966873,1.056883115327929,1.0849853842917732
22.5,1.0696271242054132,1.055945730604939,1.0841281224912866
22.6,1.068709131721516,1.0550694324971985,1.0832537000223654
22.7,1.0677711889449952,1.0541492043270708,1.0822678471407237
22.8,1.0668132958758512,1.0532151391510742,1.0812539480944554
22.9,1.0658354525140834,1.0523023997804195,1.080240743992917
23,1.0648376588596924,1.0512738016787018,1.0792426927577967
23.1,1.0638199149126781,1.0502291257464589,1.078225277948773
23.2,1.0627822206730404,1.0492207829818407,1.0771599690086466
23.3,1.0617245761407792,1.0482554281928331,1.0760119283231278
23.4,1.0606469813158945,1.0472960021185354,1.0748628438228578
23.5,1.0595494361983864,1.0462673307671713,1.0738214718186319
23.6,1.058431940788255,1.0451186653037974,1.0725724003203814
23.7,1.0572944950855003,1.0439994172857225,1.071463947379425
23.8,1.056137099090122,1.042872268703863,1.0702183604730091
23.9,1.0549597528021204,1.0417426639767466,1.0691097043771598
24,1.0537624562214951,1.040634580429466,1.0679238111672946
24.1,1.0525452093482466,1.039395722309509,1.0665898511624152
24.2,1.0513080121823748,1.0381895939319576,1.0653668798338671
24.3,1.0500508647238798,1.036997680824976,1.064139817544816
24.4,1.048773766972761,1.0357943376209429,1.0628114042048113
24.5,1.0474767189290186,1.034468716129775,1.0614877854800462
24.6,1.0461597205926532,1.0330882217160928,1.0601318030586957
24.7,1.0448227719636645,1.0317826169517776,1.0587618067572082
24.8,1.0434658730420519,1.0304787561824695,1.05737226550078
24.9,1.0420890238278162,1.0290998185991964,1.055955538330518
25,1.0406922243209569,1.0277068363358,1.054521339935158
25.1,1.0392754745214743,1.0262938102997707,1.0530679110520889
25.2,1.0378387744293684,1.0248640586998288,1.051730822499926
25.3,1.0363821240446391,1.0234268401842226,1.0503768949950736
25.4,1.0349055233672861,1.0219460403919065,1.0488408002807779
25.5,1.0334089723973099,1.020371031342028,1.047344852599926
25.6,1.0318924711347104,1.0187575303470549,1.0458354686641638
25.7,1.0303560195794872,1.0171399284667233,1.0443586769068467
25.8,1.028799617731641,1.01549169437479,1.0428914574696928
25.9,1.027223265591171,1.0139211031269442,1.0413459087506893
26,1.0256269631580777,1.0123795402538627,1.0398349790456582
26.1,1.024010710432361,1.0107945526577402,1.0383009501935794
26.2,1.0223745074140211,1.0091503651823304,1.0366813915573692
26.3,1.0207183541030576,1.0073433136500345,1.0350492939015847
26.4,1.0190422504994707,1.0056081830242873,1.0334384200702145
26.5,1.0173461966032602,1.0038494839181162,1.0318234367603363
26.6,1.0156301924144264,1.0019931193530052,1.0302792475636324
26.7,1.0138942379329694,1.0000952394718805,1.0285735327635301
26.8,1.012138333158889,0.9983651103555682,1.0268159785506166
26.9,1.010362478092185,0.9965949409570687,1.0252113643098033
27,1.0085666727328575,0.9946319492797822,1.0235658663272766
27.1,1.0067509170809068,0.9927260684898529,1.021842591000916
27.2,1.0049152111363326,0.990726161202673,1.0200109696144115
27.3,1.0030595548991352,0.9886780845259632,1.0181174229863557
27.4,1.001183948369314,0.9868107447953812,1.0162254480044757
27.5,0.9992883915468695,0.9849167138382178,1.014491808245713
27.6,0.9973728844318018,0.9829227109088146,1.0126267126823945
27.7,0.9954374270241106,0.9807965269512923,1.0108790933386258
27.8,0.993482019323796,0.9785909012279332,1.0090654183362682
27.9,0.991506661330858,0.9764522858131712,1.0073991584821849
28,0.9895113530452964,0.9743625375723834,1.0055807420412861
28.1,0.9874960944671115,0.9721410189172857,1.0036589111770602
28.2,0.9854608855963034,0.969860496141888,1.0018071805955564
28.3,0.9834057264328717,0.9675792277627435,0.999999736333302
28.4,0.9813306169768166,0.9652579463036659,0.9982336720948128
28.5,0.9792355572281379,0.9628759111707099,0.9964142847957667
28.6,0.977120547186836,0.9604499270319082,0.9945098361038607
28.7,0.9749855868529109,0.9580201992588553,0.9925912235804308
28.8,0.9728306762263621,0.9556120109442485,0.9906432450002014
28.9,0.9706558153071899,0.9531311262895179,0.9887163510733715
29,0.9684610040953944,0.9506867746785754,0.98675784746782
29.1,0.9662462425909755,0.948200616920631,0.9847751607100048
29.2,0.9640115307939331,0.9456279028004625,0.9828576363769872
29.3,0.9617568687042672,0.9430637035017124,0.9809666553127412
29.4,0.959482256321978,0.9405205085731594,0.9789699997394068
29.5,0.9571876936470656,0.937954597838794,0.9770025206689157
29.6,0.9548731806795294,0.9353044075691404,0.9749020614087764
29.7,0.9525387174193701,0.9326123491015477,0.9728124253126131
29.8,0.9501843038665874,0.9299233761056162,0.9708225771587347
29.9,0.947809940021181,0.927228007225436,0.9688633432255059
30,0.9454156258831513,0.9244797210153153,0.9668801955431892
30.1,0.9430013614524982,0.9217234494800761,0.9647238206007676
30.2,0.9405671467292218,0.9189420204716593,0.962655506838817
30.3,0.938112981713322,0.9160053273442046,0.9606418660983196
30.4,0.9356388664047987,0.9131935731640826,0.9585144709884961
30.5,0.933144800803652,0.9103081105963117,0.9563462649639447
30.6,0.9306307849098818,0.9072971618204726,0.9541998465974844
30.7,0.9280968187234884,0.9042564173593479,0.9519467265835707
30.8,0.9255429022444714,0.9012852298549152,0.9497244217150023
30.9,0.922969035472831,0.8982290539110738,0.9477402253647802
31,0.9203752184085674,0.8950488736352283,0.9456542866801237
31.1,0.9177614510516802,0.8919214306486065,0.9434691192836411
31.2,0.9151277334021696,0.8886838560881747,0.9412316129047076
31.3,0.9124740654600357,0.8854426883912605,0.9390181537002089
31.4,0.9098004472252783,0.8823897674451726,0.9368566522761947
31.5,0.9071068786978974,0.8792290002731299,0.9347595588852168
31.6,0.9043933598778933,0.8759731523997488,0.9324684080700235
31.7,0.9016598907652658,0.8725847646782636,0.9301843402026342
31.8,0.8989064713600147,0.8692073417105455,0.9279268843623951
31.9,0.8961331016621403,0.8659839156592273,0.9256497135616306
32,0.8933397816716424,0.8627530781342967,0.9232561710842098
32.1,0.890526511388521,0.8594371817166127,0.9209857132472183
32.2,0.8876932908127766,0.8560817580973381,0.9186056380824176
32.3,0.8848401199444085,0.8526948697115235,0.9162175212509187
32.4,0.8819669987834169,0.8492527566034445,0.9140365657094788
32.5,0.879073927329802,0.8458087376759575,0.9117848830091277
32.6,0.8761609055835637,0.8421748107714274,0.9094605694233462
