temp,mean,conf_lower,conf_upper
0,-0.002019544059403834,-0.003163588049363842,-8.601627227555688e-4
0.1,-0.0020296922929381816,-0.003186560429977931,-8.576565101224737e-4
0.2,-0.002038685041965412,-0.0032079458415533654,-8.543647363050916e-4
0.3,-0.0020465285442896794,-0.003227834596408021,-8.502918171341173e-4
0.4,-0.0020532290616031893,-0.0032462346367994345,-8.454418521624577e-4
0.5,-0.002058792879721203,-0.0032631539357530163,-8.39819357181291e-4
0.6,-0.0020632263088205664,-0.003278600497371274,-8.334289296679018e-4
0.7,-0.002066535683681845,-0.0032925823571478053,-8.262750540403551e-4
0.8,-0.0020687273639351258,-0.003305107582286156,-8.183622320654992e-4
0.9,-0.0020698077343095683,-0.0033161842720236486,-8.096949830280757e-4
1,-0.0020697832048867768,-0.0033258205579602693,-8.002552690636701e-4
1.1,-0.002068660211358068,-0.00333402460439274,-7.900446333275513e-4
1.2,-0.0020664452152857216,-0.003340804608653866,-7.790919969604769e-4
1.3,-0.002063144704368288,-0.003346168801457278,-7.674019611794024e-4
1.4,-0.0020587651927100395,-0.003350125447247681,-7.549791456494604e-4
1.5,-0.00205331322109465,-0.003352682844556725,-7.418281886693053e-4
1.6,-0.0020542225621010086,-0.0033643794969021447,-7.321608069219594e-4
1.7,-0.002053938502218773,-0.003374459231958428,-7.21661063560259e-4
1.8,-0.0020524681332570087,-0.003382989460296761,-7.103309696334421e-4
1.9,-0.002049818576154893,-0.0033901297080105443,-6.981999164483354e-4
2,-0.0020459969812876297,-0.0033957496255979827,-6.852729776872674e-4
2.1,-0.002041010528777275,-0.0033997672446431783,-6.715552478077384e-4
2.2,-0.002034866428808559,-0.0034022920432232157,-6.572488747867753e-4
2.3,-0.0020275719219498313,-0.003403321957650689,-6.424553004350512e-4
2.4,-0.0020191342794792194,-0.00340279774844271,-6.262746294138098e-4
2.5,-0.0020095608037161306,-0.0034007929954487496,-6.093712042007722e-4
2.6,-0.001998858828358201,-0.003397471597400331,-5.918236529046028e-4
2.7,-0.001987035718823814,-0.003392699099712546,-5.734349883950148e-4
2.8,-0.0019740988726003133,-0.003386389803386511,-5.541366414861909e-4
2.9,-0.0019600557195980283,-0.0033786355267663905,-5.341475976114611e-4
3,-0.0019523409273480672,-0.003379976622637311,-5.176885839281861e-4
3.1,-0.0019434006832015158,-0.003379717047502126,-5.003989579961378e-4
3.2,-0.0019332429858234421,-0.0033778669443485583,-4.8262776865201423e-4
3.3,-0.0019218758690907189,-0.0033744365011959274,-4.6422134800775387e-4
3.4,-0.0019093074024868698,-0.00336944498638842,-4.4502479447935576e-4
3.5,-0.0018955456915036705,-0.0033628961576710175,-4.2510878731122397e-4
3.6,-0.0018880260828874728,-0.003365329804970341,-4.087235493210491e-4
3.7,-0.001879195446887934,-0.003366050752657778,-3.914961830839738e-4
3.8,-0.0018690624688025553,-0.003365070016414891,-3.741963481565729e-4
3.9,-0.0018576358729260895,-0.0033623986618486913,-3.560395276920248e-4
4,-0.001844924422998036,-0.003358047805076895,-3.370307623812461e-4
4.1,-0.001838364127495808,-0.003362559506379738,-3.2158301729482775e-4
4.2,-0.0018304025219312713,-0.0033652394390823594,-3.054062162450377e-4
4.3,-0.0018210489604440958,-0.003366033461254502,-2.882636872013325e-4
4.4,-0.001810312839800995,-0.0033650002298211417,-2.701555729016964e-4
4.5,-0.0017982035998941103,-0.003362174692582685,-2.511861881342512e-4
4.6,-0.0017847307242483325,-0.0033575520258625033,-2.313859171204773e-4
4.7,-0.0017699037405377704,-0.003351135521055813,-2.105344831023847e-4
4.8,-0.0017537322211115898,-0.003342962682671117,-1.8879078807481023e-4
4.9,-0.001736225783529451,-0.003333024323222897,-1.6616137814203712e-4
5,-0.0017173940911067687,-0.0033212263587665282,-1.420585132584149e-4
5.1,-0.0017046740583078605,-0.00331823170718192,-1.2083705504691297e-4
5.2,-0.001690514133144744,-0.0033136526948825988,-9.871474782796756e-5
5.3,-0.0016749245888750912,-0.003307223170906266,-7.557627280103474e-5
5.4,-0.0016579157481084854,-0.0032987791438355164,-5.107224635997052e-5
5.5,-0.0016394979834143044,-0.003288492085301458,-2.559077175855064e-5
5.6,-0.001619681717941103,-0.0032767442748983877,7.939460578940814e-7
5.7,-0.0016059046308855899,-0.0032745960457580196,2.3904283574303735e-5
5.8,-0.001590615939969025,-0.003268551735486951,4.803087273476013e-5
5.9,-0.001573826693214596,-0.0032603428506811872,7.315057245691782e-5
6,-0.0015555479931349677,-0.0032515049189138154,9.925355810878376e-5
6.1,-0.0015357909974233973,-0.0032418283128485396,1.261490580839631e-4
6.2,-0.0015219941244961476,-0.0032402151576099757,1.4976039973471048e-4
6.3,-0.0015066073360440787,-0.0032367042381194837,1.7442556350347313e-4
6.4,-0.0014896424288870223,-0.0032317241728803178,2.0014839322665448e-4
6.5,-0.0014711112592402011,-0.003225040556648418,2.2718957095024453e-4
6.6,-0.0014510257434861358,-0.0032163150606856045,2.5629601156436686e-4
6.7,-0.001436825063799835,-0.0032161049567320387,2.822341202540181e-4
6.8,-0.0014209599507852163,-0.003213714385932271,3.091608970473184e-4
6.9,-0.0014034429754164201,-0.003209115411557972,3.375209412811408e-4
7,-0.0013917139782311698,-0.0032129078238471247,3.63032482550985e-4
7.1,-0.0013782243520272098,-0.0032145507992763084,3.886234936503468e-4
7.2,-0.0013629873338651243,-0.003213921251817835,4.149971354786343e-4
7.3,-0.00134601622948692,-0.003210928019600617,4.426815408233329e-4
7.4,-0.0013347516190817484,-0.0032162125843280868,4.671483577855084e-4
7.5,-0.0013216456400664011,-0.0032190996478516187,4.924765848837455e-4
7.6,-0.0013067122791743714,-0.0032195999691226698,5.189649946172503e-4
7.7,-0.00128996559696293,-0.003216361080786313,5.467031829162334e-4
7.8,-0.0012788469336696767,-0.00322070914552449,5.713407383966303e-4
7.9,-0.001273236396924091,-0.0032331717848327283,5.929189669951893e-4
8,-0.001265587435765481,-0.0032428501318918167,6.163585651194349e-4
8.1,-0.0012559153563701153,-0.0032489063073174716,6.413035536860523e-4
8.2,-0.001244235546690153,-0.0032521027731870983,6.675990004147903e-4
8.3,-0.001237990682445531,-0.0032634649423437722,6.910271378426231e-4
8.4,-0.0012296350101366424,-0.0032724618776773092,7.166631208691412e-4
8.5,-0.001219184639371803,-0.003278778107583775,7.450806671272759e-4
8.6,-0.0012066557676191905,-0.003284858998327764,7.748606417935195e-4
8.7,-0.0011920646814771012,-0.00328854847670294,8.062218141024053e-4
8.8,-0.0011754277579729831,-0.003289114133360725,8.394060749032262e-4
8.9,-0.0011567614658920956,-0.003287709122989664,8.744817504600107e-4
9,-0.0011360823671367195,-0.003284559463516387,9.109038483051658e-4
9.1,-0.0011134071181168742,-0.003279080753999478,9.486596230809677e-4
9.2,-0.0010887524711734927,-0.003271014356488866,9.877363837064734e-4
9.3,-0.0010621352760351143,-0.0032603739983816803,0.0010281213619485747
9.4,-0.0010335724813091245,-0.003247178666229564,0.0010691477298846144
9.5,-0.0010030811360086597,-0.0032314488891907814,0.0011114462892453066
9.6,-9.70678391116329e-4,-0.003213214349612503,0.0011548116519433608
9.7,-9.363815011859264e-4,-0.0031925028103326663,0.001198965835179963
9.8,-9.002078259833999e-4,-0.00316932683642295,0.0012442915157629003
9.9,-8.621748321683485e-4,-0.0031436690048898155,0.0012908967409166433
10,-8.223000950174026e-4,-0.003115221953648894,0.0013385353523947161
10.1,-7.806013001908939e-4,-0.0030841649584996264,0.0013870267441490544
10.2,-7.370962455442593e-4,-0.0030507209481986162,0.0014366167322706887
10.3,-6.918028429857174e-4,-0.0030150606316992692,0.001487389556911338
10.4,-6.447391203817888e-4,-0.002977066366196746,0.001539316939978839
10.5,-5.959232235123205e-4,-0.0029366689896703907,0.0015924063169011058
10.6,-5.453734180767463e-4,-0.0028939632022481577,0.0016469698422570214
10.7,-4.931080917533662e-4,-0.00284859344919911,0.0017030146961526066
10.8,-4.39145756313541e-4,-0.002800831962183499,0.001760494524091326
10.9,-3.835050497927535e-4,-0.0027515870322014466,0.0018190813398184218
11,-3.262047387205843e-4,-0.0027001747843115164,0.0018787613724649398
11.1,-2.672637204117625e-4,-0.0026464832934632787,0.0019409976947259541
11.2,-2.067010253204983e-4,-0.0025907505925092233,0.0020063127195471737
11.3,-1.4453581946046734e-4,-0.002532432872052434,0.0020724954671336553
11.4,-8.07874068928835e-5,-0.0024710427283480252,0.0021402055109279237
11.5,-1.5475232285211055e-5,-0.002409199682988913,0.0022094547099286367
11.6,5.138111645676637e-5,-0.002346629195188839,0.002282753265388731
11.7,1.1976190548075725e-4,-0.0022812934398070326,0.002357501035477239
11.8,1.896472522006677e-4,-0.002214399752652028,0.002431965488101965
11.9,2.6101712242713993e-4,-0.002147040668335132,0.0025084243264357105
12,3.33851327412693e-4,-0.002077570391553029,0.002586451955718418
12.1,4.0812952080803875e-4,-0.002005887823656981,0.002665379765817558
12.2,4.8383119552605677e-4,-0.0019324967268696514,0.0027456442596880434
12.3,5.60935680509653e-4,-0.0018574669194159953,0.0028269615641890347
12.4,6.394221373995914e-4,-0.0017807385409121031,0.002909164268458996
12.5,7.192695570981773e-4,-0.0017021973434466911,0.0029923013885934644
12.6,8.004567562244255e-4,-0.001621777630039758,0.0030762730504932403
12.7,8.829623734561905e-4,-0.0015395776381639508,0.003160446245240007
12.8,9.667648657544205e-4,-0.0014555707063744446,0.003247148447475365
12.9,0.0010518425044645007,-0.0013698471886348723,0.003334648613548853
13,0.0011381733712893586,-0.001282583462120429,0.0034228261554994964
13.1,0.0012257353541287094,-0.0011937552103324775,0.0035121876354526223
13.2,0.0013145061427785423,-0.0011034173530454277,0.003601828959734902
13.3,0.0014044632244845886,-0.0010102417059919973,0.0036918355530910292
13.4,0.0014955838793432028,-9.151036990311203e-4,0.0037829243757655376
13.5,0.0015878451755426983,-8.225042286706e-4,0.003874923132680115
13.6,0.001681223964437768,-7.315288769516404e-4,0.003967161716505166
13.7,0.0017756968754492608,-6.362600151006048e-4,0.004060070502328523
13.8,0.0018712403107810599,-5.433891695977441e-4,0.004153461131885125
13.9,0.0019678304399453925,-4.4468231661613507e-4,0.004248050121344551
14,0.002065443194087361,-3.4450451376157363e-4,0.004343682470354603
14.1,0.0021640542600989137,-2.4288010083899593e-4,0.004440867931734849
14.2,0.002263639074511956,-1.404300535497587e-4,0.004539432778194129
14.3,0.0023641728171595907,-3.9503284761736385e-5,0.0046387253266025755
14.4,0.0024656304045938488,6.150724723923748e-5,0.004738665342174808
14.5,0.0025679864832475687,1.6351175273001775e-4,0.004838640865254322
14.6,0.00267121542232722,2.6553395164932004e-4,0.004939414315662115
14.7,0.00277529130642273,3.6752537478672786e-4,0.0050406121397576255
14.8,0.0028801879278194135,4.7040803350929e-4,0.0051419668046967515
14.9,0.0029858787784961286,5.729255223082985e-4,0.005244400763551617
15,0.0030923370417928107,6.758507749720867e-4,0.005347018972778213
15.1,0.003199535583729298,7.803308183075943e-4,0.005450100866129794
15.2,0.003307446943956264,8.859167930537442e-4,0.005553522757613503
15.3,0.0034160433263176753,9.921477981967295e-4,0.005657085495093914
15.4,0.003525296589002811,0.0010991896120029305,0.00576082121558514
15.5,0.0036351782342643633,0.0012073837382309827,0.005864487276855415
15.6,0.0037456593976774094,0.0013164924150994293,0.005967941805810362
15.7,0.003856710836912332,0.0014262731853683876,0.00607155332008827
15.8,0.003968302919992736,0.001537282316895811,0.006176030768845698
15.9,0.004080405613007318,0.0016480046622147422,0.006281021358142598
16,0.004192988467242347,0.001760269163653632,0.006386287615257315
16.1,0.004306020605698851,0.0018725530569481054,0.0064926974251120735
16.2,0.004419470708955932,0.0019873337557332264,0.006599753327928845
16.3,0.004533307000338579,0.0021028275463316295,0.006706932768447436
16.4,0.004647497230345133,0.0022193293296245723,0.006814146312997845
16.5,0.004762008660285956,0.002337831054555397,0.00692169963902284
16.6,0.004876808045080974,0.0024553395528490243,0.007029315902085182
16.7,0.004991861615159473,0.0025728692702493778,0.007138690791318401
16.8,0.005107135057400818,0.0026886919010884096,0.007245599830411847
16.9,0.005222593495049639,0.002807532894810439,0.007354388931420284
17,0.005338201466533322,0.002927034332124854,0.007463175167835692
17.1,0.0054539229031033976,0.0030462393491993947,0.007571664448927217
17.2,0.005569721105215534,0.0031658542653350517,0.007681792436377946
17.3,0.005685558717555218,0.0032855470288523374,0.007792459435544287
17.4,0.005801397702607768,0.0034049330935981255,0.007902254319677265
17.5,0.005917199312662038,0.0035244153474427585,0.008012540519244776
17.6,0.006032924060126734,0.0036456153289458008,0.008122862768130724
17.7,0.00614853168602684,0.0037652174185550716,0.00823287721530075
17.8,0.0062639811265347905,0.0038844192096853056,0.008342401710979908
17.9,0.006379230477376761,0.004003848902462486,0.00845171095024181
18,0.006494236955938508,0.0041246130829623645,0.00856055409528223
18.1,0.006608956860877317,0.004245359824776053,0.00866867835858214
18.2,0.006723345529026672,0.004366495976052251,0.00877570737671926
18.3,0.006837357289357727,0.00448867792385315,0.008881652929023522
18.4,0.006950945413736464,0.00461191448288356,0.008988238155631623
18.5,0.007064062064186875,0.004735388020463016,0.009093885343338444
18.6,0.0071766582363383385,0.004859623454836467,0.009198786884180932
18.7,0.00728868369869895,0.0049841853777390435,0.009302976148912921
18.8,0.007400086927355129,0.005109600629159868,0.009405402474319747
18.9,0.007510815035650879,0.005234775813397294,0.009505972982058856
19,0.007620813698346417,0.005359695600927755,0.009604191522273917
19.1,0.007730027069694573,0.005482203713831193,0.00970062920298018
19.2,0.007838397694803177,0.005604001437972585,0.009796654800662483
19.3,0.007945866413570974,0.005726621240056536,0.00989037647411615
19.4,0.008052372256391554,0.005845412399217685,0.009982605224232563
19.5,0.008157852330712532,0.00596284408043082,0.010074952987033769
19.6,0.008262241697412567,0.006086579980427709,0.01016680142845903
19.7,0.008365473235814205,0.0062098566848082905,0.01025752729946546
19.8,0.008467477495981701,0.00633072465727538,0.010346156343064928
19.9,0.0085681825367554,0.006448763879034067,0.010433934562245544
20,0.00866751374774232,0.006566440785393054,0.01052028130104447
20.1,0.008765393653208959,0.0066734843518930055,0.010604959296670052
20.2,0.008861741695498748,0.0067798880239685584,0.01068810427118233
20.3,0.008956473995211824,0.006885887372135048,0.010769734946562054
20.4,0.009049503084925822,0.0069873356771574845,0.010849357940357822
20.5,0.009140737612686068,0.0070847153746009355,0.01092740304695647
20.6,0.009230082010830781,0.0071807870968558654,0.011002754878252422
20.7,0.009317436124914669,0.007274577751762106,0.01107434812902695
20.8,0.009402694796518141,0.007365711940096422,0.011142742071780584
20.9,0.009485747392535054,0.007455828549386241,0.011208581218206344
21,0.009566477272062038,0.007544095100135206,0.011270972971395095
21.1,0.009644761180192302,0.007629766991210015,0.011330253265706735
21.2,0.009720468555748006,0.0077133767967414784,0.01138807241602604
21.3,0.009793460737137357,0.007794320334029911,0.01144256974743535
21.4,0.009863590046921219,0.007875077758005512,0.01149262508261652
21.5,0.009930698731083298,0.007953034656881495,0.011540040068195364
21.6,0.009994617723096507,0.008028176086146598,0.01158307994198432
21.7,0.01005516519522189,0.00809976805887192,0.011622461082058803
21.8,0.010112144849446406,0.008167999786133973,0.011658544272779348
21.9,0.010165343887185811,0.008234932243456517,0.011690928889062797
22,0.010214530579094327,0.008298845229682925,0.011721300894628375
22.1,0.01025945133220787,0.008355074346716987,0.011753967333303075
22.2,0.010299827118505018,0.008405492718888652,0.011788763400377605
22.3,0.01033534908274112,0.00843272336504659,0.011830398668255082
22.4,0.01036567308187388,0.008432778071734247,0.011869513569752653
22.5,0.010390412813808463,0.008424031928138362,0.011912686145537971
22.6,0.01040913105392332,0.008397101466062873,0.011956867574485346
22.7,0.010421328308186099,0.008348024079772321,0.012003785731166705
22.8,0.010426427868075834,0.008278306429803596,0.01205226234784064
22.9,0.010423755738725603,0.00818657249706757,0.012097685085953021
23,0.010412513069048614,0.008067877484174061,0.012140769938032649
23.1,0.010391737277992924,0.007909069301311312,0.012182618801490233
23.2,0.010360245519509294,0.007694415276636227,0.012224220416520383
23.3,0.010316549349246355,0.007540830037635457,0.012261458110174355
23.4,0.010258719924795556,0.007289187804324598,0.012291838982341746
23.5,0.010184162539006194,0.007226805035360314,0.012318215831676733
23.6,0.010089210499055536,0.0072247430704226534,0.01234620205736909
23.7,0.009968316424201562,0.007146154276586005,0.012378265537803041
23.8,0.009812191410168791,0.0071121707634823,0.01239468822327886
23.9,0.009602410611135837,0.00702705450271095,0.012444842216033683
24,0.009286638407751869,0.007210752014584883,0.01245972568628486
24.1,NA,NA,NA
24.2,NA,NA,NA
24.3,NA,NA,NA
24.4,NA,NA,NA
24.5,NA,NA,NA
24.6,NA,NA,NA
24.7,NA,NA,NA
24.8,NA,NA,NA
24.9,NA,NA,NA
25,NA,NA,NA
25.1,NA,NA,NA
25.2,NA,NA,NA
25.3,NA,NA,NA
25.4,NA,NA,NA
25.5,NA,NA,NA
25.6,NA,NA,NA
25.7,NA,NA,NA
25.8,NA,NA,NA
25.9,NA,NA,NA
26,NA,NA,NA
26.1,NA,NA,NA
26.2,NA,NA,NA
26.3,NA,NA,NA
26.4,NA,NA,NA
26.5,NA,NA,NA
26.6,NA,NA,NA
26.7,NA,NA,NA
26.8,NA,NA,NA
26.9,NA,NA,NA
27,NA,NA,NA
27.1,NA,NA,NA
27.2,NA,NA,NA
27.3,NA,NA,NA
27.4,NA,NA,NA
27.5,NA,NA,NA
27.6,NA,NA,NA
27.7,NA,NA,NA
27.8,NA,NA,NA
27.9,NA,NA,NA
28,NA,NA,NA
28.1,NA,NA,NA
28.2,NA,NA,NA
28.3,NA,NA,NA
28.4,NA,NA,NA
28.5,NA,NA,NA
28.6,NA,NA,NA
28.7,NA,NA,NA
28.8,NA,NA,NA
28.9,NA,NA,NA
29,NA,NA,NA
29.1,NA,NA,NA
29.2,NA,NA,NA
29.3,NA,NA,NA
29.4,NA,NA,NA
29.5,NA,NA,NA
29.6,NA,NA,NA
29.7,NA,NA,NA
29.8,NA,NA,NA
29.9,NA,NA,NA
30,NA,NA,NA
30.1,NA,NA,NA
30.2,NA,NA,NA
30.3,NA,NA,NA
30.4,NA,NA,NA
30.5,NA,NA,NA
30.6,NA,NA,NA
30.7,NA,NA,NA
30.8,NA,NA,NA
30.9,NA,NA,NA
31,NA,NA,NA
31.1,NA,NA,NA
31.2,NA,NA,NA
31.3,NA,NA,NA
31.4,NA,NA,NA
31.5,NA,NA,NA
31.6,NA,NA,NA
31.7,NA,NA,NA
31.8,NA,NA,NA
31.9,NA,NA,NA
32,NA,NA,NA
32.1,NA,NA,NA
32.2,NA,NA,NA
32.3,NA,NA,NA
32.4,NA,NA,NA
32.5,NA,NA,NA
32.6,NA,NA,NA
32.7,NA,NA,NA
32.8,NA,NA,NA
32.9,NA,NA,NA
33,NA,NA,NA
33.1,NA,NA,NA
33.2,NA,NA,NA
33.3,NA,NA,NA
33.4,NA,NA,NA
33.5,NA,NA,NA
33.6,NA,NA,NA
33.7,NA,NA,NA
33.8,NA,NA,NA
33.9,NA,NA,NA
34,NA,NA,NA
34.1,NA,NA,NA
34.2,NA,NA,NA
34.3,NA,NA,NA
34.4,NA,NA,NA
34.5,NA,NA,NA
34.6,NA,NA,NA
34.7,NA,NA,NA
34.8,NA,NA,NA
34.9,NA,NA,NA
35,NA,NA,NA
35.1,NA,NA,NA
35.2,NA,NA,NA
35.3,NA,NA,NA
35.4,NA,NA,NA
35.5,NA,NA,NA
35.6,NA,NA,NA
35.7,NA,NA,NA
35.8,NA,NA,NA
35.9,NA,NA,NA
36,NA,NA,NA
36.1,NA,NA,NA
36.2,NA,NA,NA
36.3,NA,NA,NA
36.4,NA,NA,NA
36.5,NA,NA,NA
36.6,NA,NA,NA
36.7,NA,NA,NA
36.8,NA,NA,NA
36.9,NA,NA,NA
37,NA,NA,NA
37.1,NA,NA,NA
37.2,NA,NA,NA
37.3,NA,NA,NA
37.4,NA,NA,NA
37.5,NA,NA,NA
37.6,NA,NA,NA
37.7,NA,NA,NA
37.8,NA,NA,NA
37.9,NA,NA,NA
38,NA,NA,NA
38.1,NA,NA,NA
38.2,NA,NA,NA
38.3,NA,NA,NA
38.4,NA,NA,NA
38.5,NA,NA,NA
38.6,NA,NA,NA
38.7,NA,NA,NA
38.8,NA,NA,NA
38.9,NA,NA,NA
39,NA,NA,NA
39.1,NA,NA,NA
39.2,NA,NA,NA
39.3,NA,NA,NA
39.4,NA,NA,NA
39.5,NA,NA,NA
39.6,NA,NA,NA
39.7,NA,NA,NA
39.8,NA,NA,NA
39.9,NA,NA,NA
40,NA,NA,NA
40.1,NA,NA,NA
40.2,NA,NA,NA
40.3,NA,NA,NA
40.4,NA,NA,NA
40.5,NA,NA,NA
40.6,NA,NA,NA
40.7,NA,NA,NA
40.8,NA,NA,NA
40.9,NA,NA,NA
41,NA,NA,NA
41.1,NA,NA,NA
41.2,NA,NA,NA
41.3,NA,NA,NA
41.4,NA,NA,NA
41.5,NA,NA,NA
41.6,NA,NA,NA
41.7,NA,NA,NA
41.8,NA,NA,NA
41.9,NA,NA,NA
42,NA,NA,NA
42.1,NA,NA,NA
42.2,NA,NA,NA
42.3,NA,NA,NA
42.4,NA,NA,NA
42.5,NA,NA,NA
42.6,NA,NA,NA
42.7,NA,NA,NA
42.8,NA,NA,NA
42.9,NA,NA,NA
43,NA,NA,NA
43.1,NA,NA,NA
43.2,NA,NA,NA
43.3,NA,NA,NA
43.4,NA,NA,NA
43.5,NA,NA,NA
43.6,NA,NA,NA
43.7,NA,NA,NA
43.8,NA,NA,NA
43.9,NA,NA,NA
44,NA,NA,NA
44.1,NA,NA,NA
44.2,NA,NA,NA
44.3,NA,NA,NA
44.4,NA,NA,NA
44.5,NA,NA,NA
44.6,NA,NA,NA
44.7,NA,NA,NA
44.8,NA,NA,NA
44.9,NA,NA,NA
45,NA,NA,NA
45.1,NA,NA,NA
45.2,NA,NA,NA
45.3,NA,NA,NA
45.4,NA,NA,NA
45.5,NA,NA,NA
45.6,NA,NA,NA
45.7,NA,NA,NA
45.8,NA,NA,NA
45.9,NA,NA,NA
46,NA,NA,NA
46.1,NA,NA,NA
46.2,NA,NA,NA
46.3,NA,NA,NA
46.4,NA,NA,NA
46.5,NA,NA,NA
46.6,NA,NA,NA
46.7,NA,NA,NA
46.8,NA,NA,NA
46.9,NA,NA,NA
47,NA,NA,NA
47.1,NA,NA,NA
47.2,NA,NA,NA
47.3,NA,NA,NA
47.4,NA,NA,NA
