temp,mean,conf_lower,conf_upper
0,-0.0011739032674282829,-0.0011821767390880343,-0.0011666355173640807
0.1,-0.0011666234312426454,-0.0011749884326841763,-0.0011592724533922268
0.2,-0.0011582266403127016,-0.001166680502586705,-0.0011507946836589792
0.3,-0.0011487182500321427,-0.001157258318138004,-0.0011412075522352226
0.4,-0.0011381036327296266,-0.001146727265668753,-0.0011305164200842899
0.5,-0.0011263881778027472,-0.0011350927486324027,-0.0011187266651955345
0.6,-0.0011135772918535985,-0.001122360187741253,-0.001105843682719487
0.7,-0.0010996763988259555,-0.001108535021104158,-0.0010918728851046263
0.8,-0.001084690940144101,-0.0010936227043658762,-0.0010768197022357885
0.9,-0.0010686263748533207,-0.0010776287108481052,-0.0010606895815742391
1,-0.0010514881797620945,-0.0010605585316922138,-0.0010434879882994374
1.1,-0.0010332818495860094,-0.0010424176760037093,-0.001025220405452512
1.2,-0.0010140128970934253,-0.0010232116709984584,-0.0010058923340814858
1.3,-9.936868532529144e-4,-0.0010029460621506976,-9.855092933882712e-4
1.4,-9.723092673825105e-4,-9.816264133428552e-4,-9.640768208774613e-4
1.5,-9.498857073007927e-4,-9.592583070172196e-4,-9.416004725069553e-4
1.6,-9.264217594798309e-4,-9.358473443294778e-4,-9.180858228404388e-4
1.7,-9.019230292000311e-4,-9.113991453041601e-4,-8.935384652017506e-4
1.8,-8.763951407069026e-4,-8.859193489920183e-4,-8.679640118311746e-4
1.9,-8.498437373697832e-4,-8.594136136293693e-4,-8.41368094043672e-4
2,-8.222744818425536e-4,-8.318876167994368e-4,-8.137563623891055e-4
2.1,-7.936930562263731e-4,-8.033470555957245e-4,-7.851344868144688e-4
2.2,-7.64105162234469e-4,-7.737976467874531e-4,-7.555203400971844e-4
2.3,-7.335165213590166e-4,-7.432436981959545e-4,-7.249090629204206e-4
2.4,-7.019328750401407e-4,-7.1168483054113e-4,-6.933050605274793e-4
2.5,-6.693599848370756e-4,-6.79134197160688e-4,-6.607140784661416e-4
2.6,-6.358036326015217e-4,-6.455975975994459e-4,-6.271418825049256e-4
2.7,-6.012696206532299e-4,-6.110808519496964e-4,-5.925942588079084e-4
2.8,-5.657637719578596e-4,-5.755898010299125e-4,-5.570770141118065e-4
2.9,-5.292919303071376e-4,-5.391303065657699e-4,-5.20595975905348e-4
3,-4.918599605013703e-4,-5.01708251373535e-4,-4.831569926109819e-4
3.1,-5.635869092239291e-4,-5.739261248934844e-4,-5.544572207764942e-4
3.2,-6.316341365172945e-4,-6.424552650021912e-4,-6.220862065027599e-4
3.3,-6.960168718608044e-4,-7.073109430497256e-4,-6.86059138917472e-4
3.4,-7.567503901589077e-4,-7.685084759666385e-4,-7.463912524234462e-4
3.5,-8.138500120918269e-4,-8.260632266161101e-4,-8.030978270478564e-4
3.6,-8.673311044703908e-4,-8.799906041502895e-4,-8.561941887956222e-4
3.7,-9.172090805950942e-4,-9.303060643708803e-4,-9.056957100069987e-4
3.8,-9.634994006194504e-4,-9.77025110094047e-4,-9.516178097194422e-4
3.9,-0.0010062175719177152,-0.0010201632915197096,-9.939759540338222e-4
4,-0.0010453791494570354,-0.001059736206605289,-0.0010327837769219853
4.1,-0.0010809997361741113,-0.0010957595014439898,-0.0010680562052328853
4.2,-0.0011130949833564343,-0.0011282488706476801,-0.0010998106164514885
4.3,-0.0011416805910281797,-0.001157220057734453,-0.0011280626733790175
4.4,-0.001166772308340824,-0.0011826888555209378,-0.001152828087796182
4.5,-0.0011883859339685712,-0.0012046711065194428,-0.0011741226208571024
4.6,-0.0012065373165086614,-0.0012231827033400088,-0.001191962083488103
4.7,-0.0012212423548866474,-0.0012382395890974541,-0.0012063623367914434
4.8,-0.0012325169987667146,-0.0012498577578234967,-0.001217339292454074
4.9,-0.0012403772489671381,-0.0012580532548840302,-0.0012249089131615007
5,-0.0012448391578809457,-0.0012628421774016426,-0.0012290872130168364
5.1,-0.001245918829901895,-0.0012642406746834747,-0.0012298902579651338
5.2,-0.0012436324218558395,-0.0012622649486544939,-0.0012273341662230874
5.3,-0.0012379961434375744,-0.0012569312542962832,-0.0012214351087141903
5.4,-0.00122902625765327,-0.001248255900091442,-0.0012122093095094462
5.5,-0.0012167390812685625,-0.001236255248473678,-0.0011996730462737143
5.6,-0.0012011509852624237,-0.0012209457162837135,-0.001183842650717809
5.7,-0.001182278395286895,-0.0012023437752310762,-0.0011647345090564309
5.8,-0.0011601377921327879,-0.001180465952361906,-0.0011423650624720362
5.9,-0.0011347457122014638,-0.0011553288305328586,-0.0011167491101604962
6,-0.0011061187479827772,-0.0011269490488912167,-0.0010878781810857983
6.1,-0.0010742735485393163,-0.001095343303361332,-0.0010557953133746906
6.2,-0.001039226819997034,-0.0010605283471374885,-0.001020517179902767
6.3,-0.0010009953260423834,-0.0010225209911833126,-9.820605109712216e-4
6.4,-9.595958884260847e-4,-9.81338104737848e-4,-9.404420948092134e-4
6.5,-9.150453874736186e-4,-9.369966158283977e-4,-8.956787780829383e-4
6.6,-8.673607626025915e-4,-8.895135117902711e-4,-8.478084933754697e-4
6.7,-8.165590128470761e-4,-8.389058397935533e-4,-7.968325075154691e-4
6.8,-7.62657197389063e-4,-7.851992000956273e-4,-7.427627994563314e-4
6.9,-7.056724360971529e-4,-7.284033563121064e-4,-6.856164499741234e-4
7,-6.456219100726051e-4,-6.685345037922679e-4,-6.254106009027904e-4
7.1,-5.825228622028975e-4,-6.056099312668683e-4,-5.6216245568576e-4
7.2,-5.16392597722921e-4,-5.396469900216888e-4,-4.958892799351574e-4
7.3,-4.4724848478395855e-4,-4.7066309446884184e-4,-4.266084019987516e-4
7.4,-3.751079550305776e-4,-3.9867572272605866e-4,-3.5433721353480353e-4
7.5,-2.999885041855982e-4,-3.237024172040642e-4,-2.7909317009494297e-4
7.6,-2.2190769264328366e-4,-2.457607852022325e-4,-2.00893791715229e-4
7.7,-1.4088314607089373e-4,-1.648684995126422e-4,-1.1975666351555132e-4
7.8,-5.6932556018780486e-5,-8.104329903271783e-5,-3.569943630752064e-5
7.9,2.9926319460828594e-5,5.697010613402628e-6,5.1260172788980485e-5
8,1.1967565518619602e-4,9.533455644459658e-5,1.4110437972044096e-4
8.1,2.1229755820941117e-4,1.8785139748341237e-4,2.338153328653667e-4
8.2,3.0777406717052546e-4,2.83229524107484e-4,3.293751123907756e-4
8.3,4.060871516423208e-4,3.814508573915228e-4,4.2776572959936306e-4
8.4,5.072187114655156e-4,4.8249724843970037e-4,5.289691262671432e-4
8.5,6.111505760742387e-4,5.863504777082508e-4,6.329671739714032e-4
8.6,7.178645038115631e-4,6.929922543180847e-4,7.397416734087753e-4
8.7,8.273421812349258e-4,8.024042153572221e-4,8.492743537032131e-4
8.8,9.395652224112143e-4,9.145679251728617e-4,9.615468717037095e-4
8.9,0.0010545151682013257,0.0010294648746528464,0.0010765408112715135
9,0.0011721734855340016,0.0011470764804963627,0.0011942376825566845
9.1,0.0012925215666686944,0.0012673693412702817,0.0013146482372543254
9.2,0.001415540728447278,0.0013903328502426814,0.0014377417098263134
9.3,0.0015412122115343477,0.0015159547017411185,0.0015634824372846344
9.4,0.0016695171796459079,0.0016442160130769393,0.0016918516168388266
9.5,0.001800436718766189,0.0017750978235938724,0.001822830368120875
9.6,0.0019339518363523647,0.0019085810938698226,0.0019563997323917017
9.7,0.00207004346052691,0.0020446467049062404,0.002092540671735323
9.8,0.002208692439257347,0.0021832754573048447,0.0022312340682404293
9.9,0.002349879539523134,0.0023244480704314083,0.0023724607231691386
10,0.0024935854464694014,0.002468145181566353,0.0025162013561126203
10.1,0.0026397907625472826,0.0026143473450418713,0.0026624366041333725
10.2,0.0027884760066405443,0.0027630350313652802,0.0028110681819257036
10.3,0.0029396216131782333,0.0029141914839106308,0.002962137301723416
10.4,0.0030932079312330292,0.0030678092746600745,0.0031156812156455374
10.5,0.0032492152236050288,0.003223853864189397,0.0032716622251952898
10.6,0.003407623665890603,0.0033823053739028223,0.003430039181643692
10.7,0.003568413345536052,0.003543143836754906,0.003590792217458991
10.8,0.003731564260875684,0.0037063559532580456,0.0037539013762328418
10.9,0.0038970563201540125,0.003871947241411737,0.003919357630203873
11,0.00406486934053171,0.004039865068870458,0.004087107786774484
11.1,0.004234983047074956,0.004210088448297639,0.0042571646724875985
11.2,0.004407377071727803,0.004382580174085773,0.004429496947017807
11.3,0.0045820309522672355,0.004557267143039209,0.004604084194621769
11.4,0.004758924131240424,0.0047341992033666375,0.004780910461707945
11.5,0.004938035954883919,0.0049133567921805345,0.004959975007814282
11.6,0.005119345672024236,0.005094763277494941,0.0051412326684626775
11.7,0.0053028324329594985,0.005278352913543012,0.005324662632108283
11.8,0.005488475288321696,0.005464103739427834,0.005510243987719204
11.9,0.005676253187919022,0.0056519946465394,0.0056979557236208015
12,0.005866144979558,0.005842004423908536,0.0058877767263197985
12.1,0.006058129407844738,0.006034111757003052,0.006079673196030766
12.2,0.006252185112964953,0.006228292154754528,0.006273601752016158
12.3,0.0064482906294422455,0.00642449027373873,0.006469575802157087
12.4,0.006646424384874022,0.006622701724416895,0.006667610398572155
12.5,0.0068465646986446875,0.006822979818634799,0.006867640556114763
12.6,0.007048689780615396,0.007025212948613768,0.007069614319480968
12.7,0.007252777729789913,0.007229373295196033,0.007273590587144311
12.8,0.007458806532956001,0.007435478976200363,0.007479530320811911
12.9,0.0076667540633016205,0.007643507822390542,0.007687384673736453
13,0.00787659807900552,0.007853437549297577,0.007897131443967345
13.1,0.008088316221801381,0.008065245755781112,0.008108748313318113
13.2,0.008301886015515014,0.00827890047441703,0.008322203874448108
13.3,0.00851728486457388,0.008494370378490641,0.00853746755642504
13.4,0.008734490052488187,0.008711673297446878,0.00875455613048481
13.5,0.008953478740302986,0.008930752773381751,0.008973466240374185
13.6,0.009174227965020352,0.009151630514263119,0.009194082815830572
13.7,0.00939671463799104,0.009374205523013686,0.00941648888677914
13.8,0.009620915543274756,0.009598538744612932,0.009640606399676128
13.9,0.009846807335968205,0.009824567146621027,0.009866405614629273
14,0.010074366540500194,0.010052242203293042,0.010093900585024048
14.1,0.010303569548892772,0.010281555594073883,0.010323036112147728
14.2,0.010534392618987642,0.010512492783919943,0.010553796738125603
14.3,0.010766811872636872,0.010745029850468341,0.010786165279068071
14.4,0.011000803293856908,0.010979142733260344,0.011020103271248477
14.5,0.011236342726945042,0.011214807231854324,0.011255586585229741
14.6,0.011473405874557134,0.011451999003899946,0.011492548896153996
14.7,0.011711968295745704,0.011690693563172599,0.011730997186171018
14.8,0.011952005403957213,0.011930849292129793,0.011970916987739177
14.9,0.012193492464987408,0.012172456220403244,0.01221228360326136
15,0.012436404594893669,0.01241549148705371,0.012455072185618043
15.1,0.012680716757863007,0.012659930016251729,0.012699259608503693
15.2,0.01292640376403459,0.012905746577876725,0.012944837386150102
15.3,0.013173440267275485,0.013152915785289352,0.013191760969285071
15.4,0.013421800762908198,0.013401419690601789,0.013440026959177058
15.5,0.013671459585388814,0.013651227946528842,0.01368957950374988
15.6,0.013922390905934084,0.013902312233206085,0.013940366507781772
15.7,0.014174568730096183,0.01415464652455968,0.014192396704905479
15.8,0.014427966895283485,0.014408204626260853,0.014445643960688877
15.9,0.01468255906822578,0.014662960173191079,0.014700081970108546
16,0.014938318742382379,0.014918886626850194,0.01495568425495755
16.1,0.015195219235291253,0.01517595727270561,0.015212424161194173
16.2,0.01545323368585756,0.015434119735183102,0.015470274856230011
16.3,0.015712335051579686,0.015693332491834154,0.015729209326155503
16.4,0.01597249610571085,0.01595362734247585,0.015989200372900966
16.5,0.016233689434354374,0.016214987905659766,0.016250220611331266
16.6,0.016495887433490508,0.01647735573734135,0.016512242466271927
16.7,0.016759062305932687,0.016740702995974535,0.01677523816946466
16.8,0.017023186058211067,0.017005001643422783,0.017039179756450026
16.9,0.01728823049738091,0.01727022344176271,0.01730405275164304
17,0.017554167227753596,0.017536339950010228,0.017569865811838153
17.1,0.01782096764754763,0.017803300358293656,0.017836614911898994
17.2,0.018088602945457145,0.018071096293935232,0.018104229170578
17.3,0.0183570440971352,0.018339701168869613,0.018372601624441372
17.4,0.018626261861589027,0.018609045686365337,0.018641726666222914
17.5,0.018896226777484437,0.018879115880170758,0.01891159595991828
17.6,0.0191669091593562,0.019149876556072167,0.019182179812994804
17.7,0.019438279093721367,0.019421328615573216,0.01945344830456279
17.8,0.019710306435092202,0.019693441933267376,0.019725392211599704
17.9,0.01998296080188529,0.019966186148287993,0.019997945424243945
18,0.020256211572223293,0.02023953066013043,0.02027109432732784
18.1,0.020530027879625583,0.020513451433534065,0.020544804668366515
18.2,0.020804378608583935,0.020787965809511758,0.020818939279583958
18.3,0.021079232390019152,0.02106295390722722,0.021093575858376384
18.4,0.021354557596614476,0.021338369949098806,0.021368807885020356
18.5,0.021630322338021337,0.021614229813413946,0.02164451827758361
18.6,0.021906494455932828,0.0218905013774074,0.021920632096937863
18.7,0.022183041519020102,0.022167152246272467,0.02219711686817329
18.8,0.022459930817726702,0.022444163261934394,0.022473939837131907
18.9,0.022737129358915444,0.022721597786342928,0.02275105623893965
19,0.023014603860362567,0.02299934226650565,0.023028376583266567
19.1,0.023292320745093138,0.023277330899918576,0.023305958318771674
19.2,0.023570246135551896,0.023555496240497572,0.023583745518581698
19.3,0.0238483458476032,0.023833698929756824,0.023861703985681732
19.4,0.024126585384353284,0.0241120453907669,0.02413980832397553
19.5,0.02440492992978826,0.02439048745240665,0.024418078451787877
19.6,0.024683344342220203,0.02466904384795781,0.024696466032005187
19.7,0.02496179314753406,0.024947639901018972,0.024974884443924397
19.8,0.025240240532227252,0.025226287389280025,0.025253297820682943
19.9,0.025518650336233486,0.025504879861451342,0.02553163486116407
20,0.025796986045522257,0.025783356922076894,0.02580984768208781
20.1,0.026075210784464554,0.026061782689022685,0.026087988991360934
20.2,0.026353287307955154,0.026340060173421765,0.026365934177919666
20.3,0.02663117799328141,0.026618055657124533,0.02664365142514872
20.4,0.026908844831727518,0.026895756988982732,0.026921198762582654
20.5,0.027186249419903313,0.027173305579936264,0.027198466277256108
20.6,0.027463352950785412,0.027450486861456035,0.027475354683773698
20.7,0.027740116204458324,0.02772724990003207,0.02775198621103455
20.8,0.028016499538542364,0.02800363543940797,0.02802828701422428
20.9,0.02829246287829424,0.02827960344542318,0.02830416342423892
21,0.02856796570636592,0.028555126657622592,0.0285795855185231
21.1,0.028842967052206032,0.02883020050471335,0.028854542918135665
21.2,0.029117425481087558,0.029104717774464762,0.029128937016659556
21.3,0.029391299082744574,0.02937861928465821,0.029402709838028153
21.4,0.02966454545959957,0.029651943923017995,0.029675897843693757
21.5,0.02993712171456226,0.02992458175119592,0.029948496984167707
21.6,0.03020898443837922,0.03019657890183006,0.03022021771388673
21.7,0.030480089696512804,0.030467735826923952,0.03049125422087225
21.8,0.030750393015526397,0.030738176581838323,0.030761516854368974
21.9,0.031019849368951545,0.03100777697567928,0.031030999731139697
22,0.03128841316261133,0.0312764415283957,0.03129951134922827
22.1,0.0315560382193724,0.03154405287837422,0.03156706892497713
22.2,0.03182267776329678,0.031810663047933924,0.031833647836586654
22.3,0.03208828440316236,0.0320762760528473,0.03209916920269959
22.4,0.032352810115319146,0.03234091099811054,0.0323636029799818
22.5,0.032616206225846565,0.032604423775032906,0.032626903698626676
22.6,0.03287842339197414,0.03286662751255244,0.03288909118720727
22.7,0.033139411582726215,0.03312759439869273,0.03315007507043708
22.8,0.033399120058748163,0.03338728337972743,0.03340978898537971
22.9,0.03365749735126882,0.03364564302514279,0.03366814952921554
23,0.033914491240151175,0.03390270714072858,0.03392513744342835
23.1,0.03417004873097943,0.03415835204698733,0.03418069166911604
23.2,0.034424116031127404,0.03441244682809245,0.034434791731175855
23.3,0.03467663852474935,0.03466496758746162,0.034687344515846506
23.4,0.034927560746629574,0.034915903271058944,0.03493833867716118
23.5,0.035176826354823505,0.035165188242648034,0.03518765740642921
23.6,0.03542437810201698,0.03541276034208871,0.035435149271510605
23.7,0.03567015780552597,0.035658561392916246,0.035680811072425656
23.8,0.035914106315852554,0.03590253225175303,0.03592468842441151
23.9,0.036156163483706684,0.036144597641122926,0.03616673852155579
24,0.03639626812539666,0.03638468760456976,0.03640683515627912
24.1,0.03663435798648321,0.03662276536328828,0.03664490454761932
24.2,0.036870369703584024,0.03685871664385858,0.036880932980268864
24.3,0.0371042387642067,0.037092448094379914,0.03711483857669837
24.4,0.03733589946447765,0.037324031943670094,0.037346498017649755
24.5,0.037565284864624286,0.03755343002284525,0.03757590069743751
24.6,0.037792326742055404,0.03778037426345763,0.0378030045547041
24.7,0.03801695554187182,0.03800491639945835,0.03802769110177701
24.8,0.038239100324624964,0.038226946677244134,0.03824993302452353
24.9,0.03845868871112495,0.03844644745810269,0.03846974293141959
25,0.038675646824082754,0.038663327009012545,0.038686953111523426
25.1,0.03888989922635108,0.03887739897353007,0.038901494431278646
25.2,0.03910136885550776,0.039088653056677504,0.03911329050972372
25.3,0.03930997695450156,0.03929698775597423,0.03932230606375758
25.4,0.03951564299805395,0.039502348348566786,0.03952834732199643
25.5,0.03971828461448164,0.039704505504559354,0.039731374523820105
25.6,0.039917817502571666,0.03990348255240468,0.03993130373286047
25.7,0.040114155343105244,0.04009925442427422,0.04012804901388933
25.8,0.04030720970458583,0.040291732328700675,0.04032156420032264
25.9,0.040496889942681864,0.04048082523958747,0.04051162104886384
26,0.04068310309284423,0.04066643978721854,0.04069821672244249
26.1,0.04086575375550157,0.040848493760040024,0.04088125789610535
26.2,0.04104474397317282,0.0410269856107208,0.041060652828578764
26.3,0.04121997309876479,0.041201637135149766,0.04123636103891727
26.4,0.041391337654241,0.0413723323974993,0.04140831286696446
26.5,0.04155873117875694,0.041539077094468205,0.04157630399675001
26.6,0.04172204406525229,0.041701728773094485,0.0417402290951506
26.7,0.041881163384373046,0.04186017394711348,0.04190017223823487
26.8,0.04203597269446205,0.042014295578292914,0.04205582544246351
26.9,0.04218635183620241,0.04216406284121731,0.04220700190112488
27,0.042332176710323646,0.04230931990553169,0.04235354687585995
27.1,0.04247331903657838,0.04244984907815799,0.04249537331870721
27.2,0.04260964609196609,0.04258549942819354,0.042632404944951366
27.3,0.04274102042591369,0.04271617412524393,0.042764505287477085
27.4,0.04286729954981348,0.042841729550597694,0.04289153291228234
27.5,0.042988335597961634,0.042961985332494214,0.04301337111776465
27.6,0.043103974956523114,0.04307671760483797,0.04312993898893033
27.7,0.04321405785666329,0.043185866150760886,0.04324097584406738
27.8,0.0433184179274169,0.04328936208749593,0.043346316691209544
27.9,0.04341688170319609,0.04338688973615924,0.043445719384724156
28,0.04350926808005035,0.04347821846313611,0.04353898181290603
28.1,0.043595387713856876,0.04356335899358019,0.0436261460052584
28.2,0.04367504235250967,0.043642003789225954,0.043706929249843395
28.3,0.043748024092850966,0.04371388575532891,0.04378099812828884
28.4,0.04381411455149903,0.043778766768511446,0.04384818240016082
28.5,0.043873083936814494,0.04383647373541512,0.043908285259848856
28.6,0.04392469000693116,0.0438867689346559,0.04396106720669913
28.7,0.043968676895961886,0.04392939321778642,0.04400627539423263
28.8,0.04400477378704657,0.04396407214700509,0.04404364234044504
28.9,0.04403269340667456,0.043990514442635006,0.044072878602633064
29,0.04405213030947508,0.0440084366435241,0.04409370335499357
29.1,0.04406275891614632,0.044017580074121494,0.04410587316764766
29.2,0.0440642312590183,0.044017497323382476,0.04410900314835012
29.3,0.044056174379423475,0.044007810149215426,0.04410268388292746
