temp,mean,conf_lower,conf_upper
0,0.8186757527218494,0.680530108451994,0.9557454450223491
0.1,0.8197966670410779,0.6822500198254677,0.9561931546979991
0.2,0.8209077967206238,0.6839568388190067,0.9566353661602472
0.3,0.8220091417604876,0.6857597854225661,0.9570663477111125
0.4,0.8231007021606687,0.6875522828729771,0.9574764918221778
0.5,0.8241824779211674,0.6893304545002794,0.9578802344890739
0.6,0.8252544690419839,0.6910761165015153,0.9582779089469915
0.7,0.8263166755231177,0.6927588947676651,0.9586698682526149
0.8,0.8273690973645693,0.6944324509123243,0.9590561124059442
0.9,0.8284117345663384,0.696096804696023,0.9594366414069797
1,0.8294445871284253,0.697748206194386,0.9598114552557209
1.1,0.8304676550508296,0.6993862147559189,0.960180553952168
1.2,0.8314809383335515,0.7010108303806215,0.9605439374963207
1.3,0.8324844369765911,0.702629683038441,0.9609016058881796
1.4,0.8334781509799483,0.7042118174982239,0.9612535591277442
1.5,0.8344620803436231,0.7057869390977143,0.961599797215015
1.6,0.8354362250676155,0.7073517270615599,0.9619403201499914
1.7,0.8364005851519253,0.7089031819475364,0.962275127932674
1.8,0.8373551605965529,0.7104413037556438,0.9626042205630623
1.9,0.8382999514014979,0.7119166324740839,0.9629275980411565
2,0.8392349575667608,0.7134306775106983,0.9633254122605869
2.1,0.8401601790923412,0.7149756707127506,0.9636672716040264
2.2,0.841075615978239,0.7164611876949631,0.9639842887472527
2.3,0.8419812682244545,0.718015800192565,0.9642957416800704
2.4,0.8428771358309877,0.7195378724678756,0.9646016304024791
2.5,0.8437632187978383,0.7209675425309197,0.9649006393257615
2.6,0.8446395171250067,0.7223536259733125,0.9651917296650503
2.7,0.8455060308124926,0.7237137309963961,0.9655376947670044
2.8,0.8463627598602961,0.7251042999021156,0.9658783783932026
2.9,0.8472097042684172,0.7265111834940574,0.9660401649076564
3,0.8480468640368559,0.727923806354006,0.9662879368062611
3.1,0.8488742391656123,0.7292840102789577,0.9665539028163678
3.2,0.849691829654686,0.7306145886859696,0.9668456634777604
3.3,0.8504996355040777,0.7319394002661299,0.9671669563851176
3.4,0.8512976567137867,0.7332526220290161,0.9674772882371417
3.5,0.8520858932838133,0.7346183811872071,0.9677999292088174
3.6,0.8528643452141577,0.7359589415509885,0.9680790120877711
3.7,0.8536330125048195,0.737222972085968,0.9683767123368237
3.8,0.854391895155799,0.73841513767249,0.9686679494738668
3.9,0.8551409931670961,0.7396733524484944,0.9690601456957956
4,0.8558803065387107,0.7409182591448416,0.9693612621093831
4.1,0.856609835270643,0.7421498577615318,0.9695917230698089
4.2,0.8573295793628928,0.7433681482985648,0.9697727713757908
4.3,0.8580395388154605,0.7445731307559409,0.9700207352156152
4.4,0.8587397136283454,0.7457648051336598,0.9702701792987352
4.5,0.859430103801548,0.7469247914816406,0.9705091389524839
4.6,0.8601107093350683,0.7479931755940331,0.9707129250848333
4.7,0.860781530228906,0.7491292880740307,0.9709111761716346
4.8,0.8614425664830616,0.7502607663776778,0.9711038922128874
4.9,0.8620938180975346,0.7513794006284891,0.9712910732085921
5,0.8627352850723252,0.7524409781490482,0.9715159873741334
5.1,0.864977113710782,0.7559597112106882,0.9724679957002482
5.2,0.8671993730698738,0.7594588418171074,0.9734073131100852
5.3,0.8694020631496013,0.762922500691771,0.9743339396036448
5.4,0.8715851839499635,0.766388050941736,0.9752409221297818
5.5,0.8737487354709611,0.7698902727396602,0.9761523900401019
5.6,0.8758927177125939,0.7733652102527988,0.9769709349680986
5.7,0.8780171306748618,0.7767558426840222,0.9778176355222598
5.8,0.8801219743577651,0.7800552964712286,0.9786521321664224
5.9,0.8822072487613033,0.7833433609070887,0.9794695650468591
6,0.8842729538854768,0.7867388648218201,0.9802509919286733
6.1,0.8863190897302856,0.7899502033827133,0.9810431984964163
6.2,0.8883456562957294,0.7931758959046242,0.9817197643746904
6.3,0.8903526535818087,0.7964126769603634,0.9823860195094426
6.4,0.892340081588523,0.7995975677311001,0.9832316454487842
6.5,0.8943079403158725,0.8026883595807583,0.9840550428830117
6.6,0.8962562297638572,0.8058624455935427,0.9848159038321604
6.7,0.898184949932477,0.8090051917335721,0.9855963213962566
6.8,0.9000941008217321,0.8121155654974592,0.9863587979542907
6.9,0.9019836824316223,0.8152035366273565,0.9871148287956084
7,0.9038536947621478,0.8181025984634755,0.9878843211615453
7.1,0.9057041378133086,0.821192360033379,0.9885359445300876
7.2,0.9075350115851042,0.8241592065476366,0.9891531968556113
7.3,0.9093463160775355,0.8270738545130341,0.9898390660293666
7.4,0.9111380512906015,0.8300073698383208,0.9905725551524628
7.5,0.9129102172243031,0.8327057939540523,0.9915117022237729
7.6,0.9146628138786397,0.8355919243942589,0.9921752447277921
7.7,0.9163958412536115,0.838361826934702,0.9928510373336633
7.8,0.9181092993492186,0.8411783680701224,0.9935544803638399
7.9,0.9198031881654607,0.8439324172202245,0.9943276345602033
8,0.921477507702338,0.8466691229345744,0.9949619665094298
8.1,0.9231322579598509,0.8493753725540016,0.9956776860282018
8.2,0.9247674389379984,0.8520902124077047,0.9963661021664063
8.3,0.9263830506367816,0.8546466551861687,0.997065948515909
8.4,0.9279790930561996,0.8571915223819642,0.9978425431368669
8.5,0.9295555661962531,0.8597055574257436,0.9984860361417991
8.6,0.9311124700569418,0.8619580489927909,0.9990517012035024
8.7,0.9326498046382653,0.8644144134796897,0.9996739458245769
8.8,0.9341675699402243,0.8668112506204787,1.0003173019164588
8.9,0.9356657659628185,0.8692685776774155,1.0009129950705389
9,0.9371443927060479,0.8717111352193805,1.0015197371589069
9.1,0.9386034501699123,0.8742318840803096,1.0021015336725636
9.2,0.940042938354412,0.8766358877941816,1.0025935605361649
9.3,0.9414628572595469,0.8790054911516927,1.0032765600371643
9.4,0.9428632068853171,0.8813449725408309,1.0039493037014984
9.5,0.9442439872317223,0.8836750676556631,1.0045849860881997
9.6,0.9456051982987629,0.8858213232214223,1.005196899530838
9.7,0.9469468400864385,0.8879773021238118,1.0058576107819763
9.8,0.9482689125947494,0.8899711975488641,1.006424868580111
9.9,0.9495714158236954,0.891937519127698,1.00713098318109
10,0.9508543497732768,0.8938946402064207,1.0076776102770792
10.1,0.9521177144434934,0.8958724494358846,1.008156131629216
10.2,0.9533615098343448,0.8977736488272042,1.0086965022935348
10.3,0.9545857359458318,0.8996893768319871,1.0092771589610905
10.4,0.9557903927779539,0.9015308835034974,1.009791648484971
10.5,0.956975480330711,0.903320670960664,1.010291133046251
10.6,0.9581409986041034,0.9052359368088931,1.0107742987631505
10.7,0.9592869475981309,0.9069866954138288,1.0112414986923537
10.8,0.9604133273127939,0.9086503306177134,1.0116925502771665
10.9,0.961520137748092,0.9102861316432477,1.0121212076419694
11,0.9626073789040251,0.9119536364432808,1.0125849755556935
11.1,0.9636750507805936,0.9136385575764284,1.0130818263602321
11.2,0.964723153377797,0.915305721730838,1.0134696714097118
11.3,0.9657516866956359,0.9169067845719923,1.0139632447539073
11.4,0.9667606507341098,0.9184633594317965,1.0143066204472169
11.5,0.9677500454932191,0.9200343920496186,1.0147065526931516
11.6,0.9687198709729634,0.9216570053586777,1.0150559836871094
11.7,0.9696701271733428,0.923257279615693,1.0154223301020597
11.8,0.9706008140943577,0.9247797542647931,1.015852421055351
11.9,0.9715119317360077,0.9261902050678319,1.016198769326647
12,0.9724034800982928,0.9276312026948007,1.0165488633968183
12.1,0.9732754591812132,0.929065882554178,1.0167995718649525
12.2,0.9741278689847686,0.9303423770088965,1.0170070414746166
12.3,0.9749607095089594,0.9317112576703181,1.0172616556918292
12.4,0.9757739807537853,0.9331699239789939,1.0174672062544818
12.5,0.9765676827192462,0.9344274518218572,1.0178130040102285
12.6,0.9773418154053427,0.9355888059742474,1.0181701743070073
12.7,0.978096378812074,0.9368177932138646,1.0185065507231112
12.8,0.9788313729394409,0.9381259710352179,1.0187539500134313
12.9,0.9795467977874426,0.939406777378863,1.0188088077347541
13,0.9802426533560797,0.9405499582265746,1.018937513859652
13.1,0.9809189396453522,0.9416350101995281,1.019052377717892
13.2,0.9815756566552594,0.942707331229565,1.0191772743287086
13.3,0.9822128043858023,0.9437249293361563,1.0193910074610784
13.4,0.98283038283698,0.944699362476324,1.0196027065290019
13.5,0.983428392008793,0.9457985403258952,1.0197383898980452
13.6,0.9840068319012413,0.9468531938433129,1.0198151384232768
13.7,0.9845657025143246,0.9478114984222139,1.0199911260842367
13.8,0.9851050038480433,0.9486975508185258,1.0201210979738882
13.9,0.9856247359023971,0.9497364416917304,1.0203186940002928
14,0.9861248986773861,0.9506629289468042,1.020489237522598
14.1,0.9866054921730103,0.9515488024879468,1.020422439483976
14.2,0.9870665163892695,0.9524804376588998,1.0204092480073508
14.3,0.9875079713261643,0.9533916348978271,1.020378205538612
14.4,0.9879298569836941,0.9542813550907643,1.0203812361323024
14.5,0.988332173361859,0.9551312182876297,1.0203319828018438
14.6,0.9887149204606591,0.9558813102825743,1.0202622917288444
14.7,0.9890780982800943,0.9566909616787906,1.020253163673214
14.8,0.9894217068201652,0.9574892813443999,1.0202674778360075
14.9,0.9897457460808708,0.9582713383747731,1.0201457370118465
15,0.9900502160622117,0.9590492748135129,1.0201464957190205
15.1,0.9903351167641878,0.9596234390571359,1.0201429278884162
15.2,0.990600448186799,0.9602236135713325,1.0201007548972343
15.3,0.9908462103300457,0.9607516395562434,1.0199377079364795
15.4,0.9910724031939275,0.9613261755749172,1.0197494484693679
15.5,0.9912790267784444,0.9619453507984961,1.0196215033127978
15.6,0.9914660810835965,0.9625054184292979,1.019304008466873
15.7,0.9916335661093836,0.9629728671383064,1.0190776792717497
15.8,0.9917814818558062,0.963402323618196,1.018873117641252
15.9,0.9919098283228638,0.9637956041342268,1.018556447642463
16,0.9920186055105567,0.964292898020233,1.018262869145739
16.1,0.9921078134188848,0.9646189851280842,1.0179701488498734
16.2,0.9921774520478479,0.9649706656399291,1.0175518663794698
16.3,0.9922275213974465,0.9653336570411815,1.0171133516804733
16.4,0.99225802146768,0.9656489482636712,1.0168269639340024
16.5,0.9922689522585489,0.965890552983262,1.0165376460815359
16.6,0.992260313770053,0.9662769243663074,1.0162308843052419
16.7,0.9922321060021921,0.9666234374577789,1.015936060224004
16.8,0.9921843289549668,0.9669473101264847,1.0154991573653063
16.9,0.9921169826283762,0.9672609813878601,1.0150328123099532
17,0.992030067022421,0.9673955680972739,1.0145791710087657
17.1,0.9919235821371011,0.9677381576239601,1.0140443357889892
17.2,0.991797527972416,0.9679841215796733,1.0134632409721451
17.3,0.9916519045283667,0.9681862702519165,1.012996948139324
17.4,0.9914867118049522,0.9684156695494388,1.0126257483261913
17.5,0.9913019498021729,0.9684182334413356,1.0124536541724947
17.6,0.9910976185200288,0.9685815114235387,1.0119994031627288
17.7,0.9908737179585201,0.9686617241920158,1.0115265320002043
17.8,0.9906302481176466,0.9688460032218273,1.0109927822429712
17.9,0.9903672089974079,0.9689655885274899,1.0105289327434155
18,0.9900846005978046,0.9689124604291106,1.0099190283626232
18.1,0.9897824229188366,0.9688100886870086,1.0094789218600093
18.2,0.9894606759605036,0.9688508012906409,1.0090306552234478
18.3,0.9891193597228061,0.9688022104207716,1.0085856183500252
18.4,0.9887584742057436,0.9686777523626686,1.0081680641919208
18.5,0.9883780194093164,0.9684377592787358,1.0075740434385407
18.6,0.9879779953335242,0.9679370142892246,1.006963822661772
18.7,0.9875584019783672,0.9675631589225521,1.006404386622894
18.8,0.9871192393438455,0.9670898879706744,1.0058338288476434
18.9,0.986660507429959,0.9667715959981671,1.0050935386528215
19,0.9861822062367078,0.9665189230708483,1.0044111260549087
19.1,0.9856843357640914,0.9663525352741716,1.0036435533634167
19.2,0.9851668960121105,0.9660809780863046,1.0028768449654226
19.3,0.9846298869807648,0.9657837760304617,1.0022664714608325
19.4,0.9840733086700543,0.9655323227783372,1.001579889204932
19.5,0.983497161079979,0.9652652907707193,1.0009113118906239
19.6,0.9829014442105388,0.9648252953106398,1.0002696324048108
19.7,0.9822861580617337,0.9644007409506716,0.99966659320386
19.8,0.981651302633564,0.963893984960243,0.9990011452419574
19.9,0.9809968779260293,0.9634093564105537,0.9983872518223325
20,0.98032288393913,0.962875588525661,0.9976014358184948
20.1,0.9796293206728658,0.9623780156034543,0.9968064209429287
20.2,0.9789161881272367,0.9617787851408997,0.9960387181883043
20.3,0.978183486302243,0.9610516833616514,0.9953114482478296
20.4,0.9774312151978843,0.9602625431603478,0.9945206813558498
20.5,0.9766593748141608,0.95946499650826,0.9937041616516811
20.6,0.9758679651510727,0.9588252891944982,0.9928921651633215
20.7,0.9750569862086196,0.9580783279696261,0.9920263291552807
20.8,0.9742264379868019,0.9572384084201944,0.9911576301283149
20.9,0.9733763204856192,0.9563797963866449,0.9902754591321408
21,0.9725066337050716,0.9555532646492474,0.9895268980189129
21.1,0.9716173776451594,0.9547514806542181,0.9888271102923507
21.2,0.9707085523058823,0.953772560717875,0.9878510962167926
21.3,0.9697801576872405,0.9528891039254974,0.9868850589976719
21.4,0.9688321937892337,0.9518281855452233,0.9857613085640589
21.5,0.9678646606118622,0.9507893686951716,0.984834461009394
21.6,0.9668775581551259,0.9499806203870853,0.9838132562051014
21.7,0.9658708864190247,0.9491113435187681,0.9828627319316064
21.8,0.964844645403559,0.9481183565638667,0.9820050699501774
21.9,0.9637988351087283,0.9470257801914259,0.9809839628240498
22,0.9627334555345326,0.9459029809920938,0.9800021020392662
22.1,0.9616485066809722,0.9447019676705187,0.9789713442151116
22.2,0.9605439885480471,0.943386462448802,0.977858262537662
22.3,0.9594199011357573,0.9420505427486736,0.9766827322253548
22.4,0.9582762444441025,0.9408982631537398,0.9754935565725555
22.5,0.9571130184730827,0.9395895001475092,0.9745146722493088
22.6,0.9559302232226985,0.9382095077421726,0.9735080364175565
22.7,0.9547278586929493,0.936913823107999,0.9723950069691238
22.8,0.9535059248838353,0.9356649380300612,0.9711427177511385
22.9,0.9522644217953566,0.9343599067110464,0.9699795688472959
23,0.951003349427513,0.9327479034149101,0.9687560854056587
23.1,0.9497227077803045,0.9313479953277737,0.9676347200832014
23.2,0.9484224968537313,0.9298671244747241,0.9663414024259315
23.3,0.9471027166477934,0.9282548402741928,0.965203787909244
23.4,0.9457633671624905,0.9264772833228518,0.9638521579881998
23.5,0.9444044483978229,0.9249542761266859,0.9627235723564724
23.6,0.9430259603537905,0.9232896186397481,0.9613880315213335
23.7,0.9416279030303931,0.9216404488795287,0.9601229844419586
23.8,0.9402102764276312,0.9199095958985202,0.9588779050799003
23.9,0.9387730805455043,0.9183196038435067,0.9576941928694745
24,0.9373163153840126,0.9166742668572668,0.956669622780816
24.1,0.9358399809431561,0.9150105056229563,0.9552842313792407
24.2,0.9343440772229348,0.9132160416589843,0.9541100200281217
24.3,0.9328286042233489,0.9115263256293865,0.9527547273434369
24.4,0.9312935619443978,0.9098082350332574,0.9513899419743983
24.5,0.9297389503860822,0.9079802165177266,0.9499891348060221
24.6,0.9281647695484017,0.9061688440822624,0.9487214534972639
24.7,0.9265710194313563,0.9043495429209321,0.9473984345329007
24.8,0.9249577000349464,0.9025141587910261,0.9460846742947961
24.9,0.9233248113591714,0.9005637680247083,0.9446443195071306
25,0.9216723534040316,0.8987216355989043,0.9433292166044405
25.1,0.9200003261695271,0.8966675009304166,0.942034483503949
25.2,0.9183087296556576,0.8946235030514427,0.9408341852746009
25.3,0.9165975638624237,0.8925104772024501,0.9394101675280888
25.4,0.9148668287898247,0.8905317762625693,0.9377449057065166
25.5,0.9131165244378608,0.8885097086961709,0.93620026868243
25.6,0.9113466508065322,0.8864409695418625,0.9347498967807375
25.7,0.9095572078958388,0.884337985293643,0.9333508766182189
25.8,0.9077481957057808,0.8822714613567533,0.9319759313918135
25.9,0.9059196142363577,0.8800101960038977,0.9305077574149389
26,0.90407146348757,0.8777918551851683,0.9291540371378582
26.1,0.9022037434594172,0.8757470148079827,0.927804303114166
26.2,0.9003164541518998,0.8734920774511816,0.9264339824302837
26.3,0.8984095955650178,0.8711130529773414,0.9250340896633145
26.4,0.8964831676987707,0.8687105744447807,0.9235441939306832
26.5,0.8945371705531588,0.8663008641654393,0.921948058869007
26.6,0.89257160412818215,0.8640030185846553,0.920425587321833
26.7,0.8905864684238407,0.8616396220516147,0.9189597070909223
26.8,0.8885817634401346,0.8592993264387045,0.9173564285962524
26.9,0.8865574891770635,0.8568244583397702,0.9156972613648844
27,0.8845136456346276,0.8543339061516932,0.9139410371300587
27.1,0.882450232812827,0.8518881125063755,0.9122081500549086
27.2,0.8803672507116613,0.8493219455845362,0.9104474111212439
27.3,0.8782646993311313,0.8468429135129503,0.9086790681827228
27.4,0.876142578671236,0.8442012190576331,0.9069850168634006
27.5,0.8740008887319762,0.8415657518611244,0.9052855182770491
27.6,0.8718396295133514,0.8388099317077131,0.9035441814127685
27.7,0.8696588010153619,0.8360430001228665,0.9018181843855071
27.8,0.8674584032380077,0.8333053426663988,0.8999723027452529
27.9,0.8652384361812886,0.8306501781286875,0.8983003080433103
28,0.8629988998452046,0.8279829897774623,0.896520387018876
28.1,0.8607397942297558,0.8252704832187407,0.8948133886152272
28.2,0.8584611193349423,0.8226489158691019,0.8931060585850261
28.3,0.8561628751607641,0.8199648099250503,0.8914040352342916
28.4,0.8538450617072209,0.8170783569568472,0.8896264685215589
28.5,0.8515076789743128,0.8142260845824013,0.887800174565614
28.6,0.84915072696204,0.8113333260418205,0.8860245594306249
28.7,0.8467742056704024,0.8083812836463622,0.884223949645788
28.8,0.8443781150994001,0.8054410234989832,0.8823981583885994
28.9,0.841962455249033,0.8026958952060423,0.8804248588471575
29,0.839527226119301,0.7999423223074396,0.8784724631629444
29.1,0.8370724277102041,0.7971349092444309,0.8764614600011842
29.2,0.8345980600217424,0.7943156046135346,0.8744958198238402
29.3,0.8321041230539161,0.7914767432396916,0.8724062603810308
29.4,0.8295906168067249,0.7886115677589198,0.8702372957299935
29.5,0.8270575412801688,0.7856529335766383,0.8681582929007686
29.6,0.824504896474248,0.7826372872419203,0.8661706880216805
29.7,0.8219326823889623,0.7795933438598246,0.8641625151684834
29.8,0.819340899024312,0.7765602614344558,0.8621873913856253
29.9,0.8167295463802966,0.7735506717246834,0.860152230398304
30,0.8140986244569166,0.770474934608458,0.8580939455214226
30.1,0.8114481332541716,0.7674131761080043,0.8560838787063274
30.2,0.8087780727720619,0.76431306953870215,0.854028585889655
30.3,0.8060884430105877,0.7610558815235624,0.8519570193755779
30.4,0.8033792439697482,0.7578345807834173,0.8498620950169351
30.5,0.8006504756495441,0.7546366434694711,0.8477399573177395
30.6,0.7979021380499751,0.7514254029616865,0.8456242032028707
30.7,0.7951342311710414,0.7481953775359637,0.8433494711384824
30.8,0.7923467550127431,0.744937140550207,0.8410758170899815
30.9,0.7895397095750798,0.7416656883826866,0.8387988779827038
31,0.7867130948580515,0.7383685059364486,0.8366082308998727
31.1,0.7838669108616586,0.7350521074475986,0.8344210670033144
31.2,0.7810011575859008,0.7314214380400046,0.832054475203241
31.3,0.7781158350307784,0.7279021635385332,0.8295799246553108
31.4,0.775210943196291,0.724198647587324,0.8270856512341962
31.5,0.7722864820824389,0.7204812129028719,0.824719516829826
31.6,0.7693424516892218,0.7169224585086134,0.8222973191182268
31.7,0.76637885201664,0.7133905307522428,0.8199166792068544
31.8,0.7633956830646935,0.7097858693577841,0.8175529497396288
31.9,0.7603929448333822,0.7061235718773029,0.8150973105001214
32,0.7573706373227058,0.70242868295486,0.8127451163871349
32.1,0.7543287605326648,0.6986794341045781,0.8103809638035393
32.2,0.7512673144632589,0.6949031223889117,0.8081049967735185
32.3,0.7481862991144885,0.691132424043608,0.8057457396932255
32.4,0.7450857144863531,0.687409978804364,0.8034114375849399
32.5,0.7419655605788528,0.6836267252777795,0.8011356605691176
