temp,mean,conf_lower,conf_upper
0,-0.003843640304916576,-0.004295055614036922,-0.00339273968735086
0.1,-0.003931277111874031,-0.004395373379689035,-0.0034678739891648323
0.2,-0.004016387025428947,-0.0044930153425254095,-0.0035406398742230767
0.3,-0.0040989781673092095,-0.004587989981433133,-0.0036110450260015206
0.4,-0.004179058678398182,-0.004680305795159348,-0.0036790971461153226
0.5,-0.004256636718851059,-0.004769971302431342,-0.0037448039544288854
0.6,-0.004331720468212314,-0.0048566976877560735,-0.00380819222269812
0.7,-0.004404318125534229,-0.004940733428884213,-0.0038692608921999383
0.8,-0.004474437909496516,-0.005022127530751773,-0.003928008975218111
0.9,-0.004542088058527078,-0.005100888734091984,-0.003984444257804808
1,-0.004607276830923873,-0.005177025800779972,-0.00403857454480145
1.1,-0.004670012504977937,-0.005250547513964369,-0.004090407659954774
1.2,-0.004730303379097566,-0.0053214626782001435,-0.004139951446034011
1.3,-0.0047881577719336476,-0.005389780119582714,-0.0041872474783399985
1.4,-0.004843584022506216,-0.005455508685883329,-0.004232527133279289
1.5,-0.004896590490332172,-0.005518657246685738,-0.0042755529416493914
1.6,-0.004947185555554236,-0.005579220218555974,-0.00431633272974713
1.7,-0.004995377619071141,-0.005637208692042394,-0.004354874343137215
1.8,-0.005041175102669042,-0.005692642898767906,-0.004390843639690452
1.9,-0.005084586449154227,-0.005745531805038512,-0.004424239267334033
2,-0.005125620122487073,-0.005795884399707373,-0.0044553949201335714
2.1,-0.005164284607917315,-0.005843709694319872,-0.00448431868156299
2.2,-0.005200588412120626,-0.005889016723260075,-0.0045110435059740285
2.3,-0.005234540063336505,-0.005931814543898651,-0.004535886061077495
2.4,-0.005266148111507542,-0.005972112236742228,-0.004558533622398819
2.5,-0.005295421128420016,-0.006009918905584229,-0.004578994299701065
2.6,-0.005322367707845888,-0.006045243677657186,-0.0045972762235623995
2.7,-0.005346996465686189,-0.0060780957037865875,-0.004613387545511565
2.8,-0.0053693160401158116,-0.00610848415854623,-0.004627336438164679
2.9,-0.005389335091729764,-0.00613641824041514,-0.0046391310953633885
3,-0.005407062303690834,-0.006161907171936043,-0.004648779732314386
3.1,-0.005589636065338605,-0.0063697439000561665,-0.004805948111237904
3.2,-0.005767173247507436,-0.006572207484155799,-0.004958397424770792
3.3,-0.005939690198289329,-0.006769315296776717,-0.005106143131855461
3.4,-0.006107203305056599,-0.006961084752356597,-0.005249200728606391
3.5,-0.006269728994706475,-0.0071475333074915125,-0.0053875857485411235
3.6,-0.006427283733907989,-0.007328678461200949,-0.005521313762813436
3.7,-0.006579884029351262,-0.007504537755195376,-0.005650400380448759
3.8,-0.0067275464279991475,-0.007675128774146417,-0.00577486124858181
3.9,-0.006870287517341321,-0.007840469145959603,-0.005894712052696541
4,-0.007008123925650797,-0.008000576542049807,-0.006009968516868354
4.1,-0.007141072322242951,-0.00815546867761935,-0.006120646404008691
4.2,-0.007269149417737032,-0.008305163311938833,-0.0062267615161119534
4.3,-0.007392371964320237,-0.00844967824863072,-0.006328329694504847
4.4,-0.0075107567560143505,-0.008589031335955694,-0.006425366820098127
4.5,-0.007624320628945018,-0.00872324046710188,-0.006517888813640822
4.6,-0.007733080461613634,-0.008852323580476901,-0.006605911635976933
4.7,-0.00783705317517194,-0.008976298660002829,-0.006689451288304669
4.8,-0.007936255733699315,-0.009095183735414116,-0.006768523812438211
4.9,-0.008030705144482831,-0.009208996882558457,-0.006843203482166492
5,-0.00812041845830009,-0.009317756223700688,-0.006913490043738273
5.1,-0.008205412769704884,-0.009421479927829764,-0.0069792910211974426
5.2,-0.008285705217315715,-0.009520186210968801,-0.007039705132521121
5.3,-0.008361312984107212,-0.009613893336488275,-0.007095718976080261
5.4,-0.008432253297704494,-0.009702619615422407,-0.00714734887751217
5.5,-0.008498543430680502,-0.009786383406788751,-0.007194414337109135
5.6,-0.00856020070085634,-0.009865203117911094,-0.007236987426899466
5.7,-0.00861724247160469,-0.00993909720474561,-0.007275201690570245
5.8,-0.00866968615215631,-0.010008084172210423,-0.007309073771504573
5.9,-0.008717549197909675,-0.01007218257451855,-0.007338766960450679
6,-0.008760849110743806,-0.010131411149437847,-0.0073642284832457555
6.1,-0.008799603439334315,-0.010186131761395698,-0.007385412082910767
6.2,-0.008833829779472724,-0.01023604028627094,-0.007402334530869229
6.3,-0.008863545774389098,-0.010281155320138454,-0.007415012643843438
6.4,-0.008888769115078035,-0.01032149550948951,-0.007423463284165336
6.5,-0.008909517540628062,-0.010357079551581135,-0.007427703360090632
6.6,-0.008925808838554483,-0.010387628840467508,-0.0074277688596474534
6.7,-0.008937660845135732,-0.010413402094698475,-0.007423667968474525
6.8,-0.008945091445753261,-0.010434458591498323,-0.007415408971518047
6.9,-0.00894811857523505,-0.010450932530980693,-0.007403082335837963
7,-0.008946760218202737,-0.010464002486403941,-0.007386640279427253
7.1,-0.008941034409422463,-0.010472315828493997,-0.007366092847187736
7.2,-0.008930959234159482,-0.010474670107274694,-0.0073414572603098015
7.3,-0.00891655282853654,-0.010472401907298956,-0.0073143070067518195
7.4,-0.00889783337989615,-0.010465530528029406,-0.0072840795939973935
7.5,-0.008874819127166752,-0.01045407532385604,-0.007249862703594198
7.6,-0.008847528361232863,-0.010438041229524495,-0.007211673411244518
7.7,-0.008815979425309239,-0.010417678438570017,-0.007169652833353701
7.8,-0.008780190715319115,-0.010393697225864171,-0.007123523730685803
7.9,-0.008740180680276629,-0.010365224837863785,-0.007073126743749275
8,-0.008695967822673373,-0.010332280754018399,-0.007018804897918429
8.1,-0.008647570698869293,-0.010294884510439365,-0.006960575638091207
8.2,-0.00859500791948784,-0.010253055700316082,-0.006898481310395749
8.3,-0.008538298149815557,-0.010206813974336893,-0.0068328480049114826
8.4,-0.008477460110206107,-0.010156378546596343,-0.006763388968332341
8.5,-0.008412512576488805,-0.010101387724922258,-0.006688422856446044
8.6,-0.008343474380381742,-0.01004204830616243,-0.006611684988651561
8.7,-0.008270364409909579,-0.009978501262396366,-0.006531204061703989
8.8,-0.008193201609826027,-0.009910487878542294,-0.0064469573719166656
8.9,-0.008112004982041166,-0.00983818049059812,-0.006358962682254117
9,-0.008026793586053564,-0.009761599160814332,-0.006266820831339883
9.1,-0.007937586539387403,-0.009680489823959113,-0.006170945114078729
9.2,-0.007844403018034556,-0.009594772009255553,-0.006071369382135545
9.3,-0.007747262256901797,-0.009505660296926906,-0.005968111657788242
9.4,-0.007646183550263128,-0.009412358030453285,-0.005861190018678553
9.5,-0.007541186252217393,-0.009314885572503935,-0.005749363708491077
9.6,-0.0074322897771511775,-0.009213263349135173,-0.005633529321536413
9.7,-0.00731951360020714,-0.009107511850283578,-0.0055140650805070865
9.8,-0.007202877257757801,-0.00899765163026501,-0.00539098942845448
9.9,-0.00708240034788494,-0.008883703308279502,-0.005264320866460451
10,-0.006958102530864598,-0.008765687568922107,-0.005133938203526041
10.1,-0.006830003529657884,-0.008643625162699823,-0.0049999947678385035
10.2,-0.006698123130407567,-0.008517510292697936,-0.004862512885054728
10.3,-0.0065624811829406195,-0.008387310251107824,-0.004721511313980255
10.4,-0.0064230976012767775,-0.008253124683154355,-0.0045770088738780685
10.5,-0.006279992364143204,-0.008114974609884659,-0.00442902444495001
10.6,-0.006133185515495373,-0.007972881120915749,-0.004277576968823989
10.7,-0.005982697165044256,-0.007826865374989484,-0.004122685449047026
10.8,-0.0058285474887899225,-0.007676948600534293,-0.003964368951584235
10.9,-0.005670756729561648,-0.00752315209623377,-0.003802646605323863
11,-0.005509345197564642,-0.007365497231602229,-0.003636385324045835
11.1,-0.005344333270933497,-0.007204005447567394,-0.00346573726829483
11.2,-0.005175741396292469,-0.007038698257060243,-0.003290732494807459
11.3,-0.005003590089322693,-0.006869597245612224,-0.003112361182865446
11.4,-0.0048278999353364846,-0.0066967240719598906,-0.0029306432647184123
11.5,-0.00464869158985876,-0.0065201004686570915,-0.002745598741166898
11.6,-0.004465985779215794,-0.006339748242694893,-0.0025572476821404625
11.7,-0.004279803301131358,-0.006155689276129273,-0.0023656102272830793
11.8,-0.004090165025330395,-0.005967945526716784,-0.0021707065865459725
11.9,-0.003897091894150368,-0.005776539028558313,-0.0019725570407880203
12,-0.0037006049231603543,-0.005581491892751002,-0.0017711819423838074
12.1,-0.0035007252017880907,-0.005382826308048583,-0.0015666017158395325
12.2,-0.0032974738939550467,-0.005180564541530163,-0.0013588368584168337
12.3,-0.0030908722387196757,-0.004974728939277651,-0.0011479339343312953
12.4,-0.002880941550929013,-0.0047653419270619985,-9.340058356337435e-4
12.5,-0.002667703221878691,-0.0045524260110383205,-7.178320298035648e-4
12.6,-0.002451178719981605,-0.004335925540076573,-5.009810469930867e-4
12.7,-0.0022313895914453053,-0.004113181941792724,-2.810716486970062e-4
12.8,-0.002008357460958293,-0.0038853477219641767,-5.812428897865015e-5
12.9,-0.0017821040323854048,-0.0036541576336451415,1.6776712380230704e-4
13,-0.00155265108947236,-0.0034223992911253166,3.966469027505545e-4
13.1,-0.001320020496559712,-0.003192398675393736,6.284089182505338e-4
13.2,-0.0010842341993063647,-0.0029577286114121984,8.630156554787797e-4
13.3,-8.453142254227124e-4,-0.002719729345932876,0.0010990321003841313
13.4,-6.032826854137636e-4,-0.0024784238717085864,0.0013372406905786246
13.5,-3.581617733321987e-4,-0.002233772450032193,0.0015783047955138345
13.6,-1.0997376754176471e-4,-0.001982591838590265,0.0018276035195914958
13.7,1.41258968508987e-4,-0.0017315560417700444,0.0020810209601570197
13.8,3.955139855023834e-4,-0.001474444783025533,0.002336863788690856
13.9,6.527687474564181e-4,-0.0012129292630380806,0.0025889978780846055
14,9.130006309187146e-4,-9.480897860929538e-4,0.0028438818028525604
14.1,0.0011761869241491644,-6.80088982576702e-4,0.0031014721599102913
14.2,0.0014423048262912673,-4.089509932419721e-4,0.0033614488862901766
14.3,0.001711331446531884,-1.3470005450625603e-4,0.003624109750197427
14.4,0.0019832438032491044,1.422588859458871e-4,0.0038894169444538577
14.5,0.0022580188231482124,4.224238863670413e-4,0.00415904803423534
14.6,0.002535633340385299,7.05622172484704e-4,0.004430746797579274
14.7,0.0028160640956784787,9.917080530044953e-4,0.004707103099049277
14.8,0.003099287735406386,0.001280935483245419,0.004986044312513852
14.9,0.0033852808106936893,0.0015731273263703133,0.005267548200272957
15,0.0036740197764835213,0.0018652631676409287,0.005552009410992261
15.1,0.003965480990596345,0.0021584977487692936,0.005839010098587689
15.2,0.004259640712775249,0.002454967530377038,0.006128511821244862
15.3,0.004556475103717251,0.002753453507928006,0.006420491927055925
15.4,0.004855960224090352,0.003054747872976382,0.0067151750759570335
15.5,0.005158072033536196,0.0033585247669638773,0.007010434868613654
15.6,0.005462786389657858,0.0036649812097898694,0.007308512181021115
15.7,0.005770079046992648,0.003974172283141129,0.007608984195939223
15.8,0.006079925655969591,0.0042860729109592795,0.007911827993917438
15.9,0.006392301761851149,0.004602523976389438,0.00821700225198631
16,0.006707182803659164,0.004920090126703644,0.008524473094701251
16.1,0.007024544113084363,0.0052411994444465995,0.008834250485760227
16.2,0.007344360913379381,0.005565852516113584,0.0091494219053268825
16.3,0.0076666083182348795,0.00589317129612967,0.009468779637752164
16.4,0.007991261330638287,0.006223160706540937,0.009789138516067839
16.5,0.008318294841715108,0.0065538451134033995,0.010107598822069875
16.6,0.008647683629552134,0.006890639260494393,0.010428047116849571
16.7,0.008979402358002396,0.007226669516429935,0.010751701213950719
16.8,0.00931342557547145,0.007568164221075862,0.011080796133798546
16.9,0.009649727713684515,0.007910583703301442,0.01141184505371007
17,0.009988283086434213,0.00825540540876997,0.01174419683108224
17.1,0.010329065888308397,0.008602602347995404,0.012081242460553367
17.2,0.01067205019339773,0.0089521474050985109,0.012420288056671485
17.3,0.011017209953982556,0.009304013336420874,0.012761075803935162
17.4,0.01136451899919858,0.009658172769116274,0.01310155760511825
17.5,0.011713951033681098,0.010014649776972188,0.013444181662954293
17.6,0.012065479636187041,0.010374304294137464,0.013794301813951308
17.7,0.012419078258194624,0.010737887196085302,0.014145738043418636
17.8,0.012774720222479986,0.011103827951893854,0.01449685513415856
17.9,0.01313237872167031,0.011468592438172106,0.0148498618736003
18,0.013492026816773065,0.011837662311411782,0.015204673473704428
18.1,0.013853637435680622,0.012206916081900665,0.015561251514832966
18.2,0.014217183371649938,0.012575858787981668,0.015919639773931633
18.3,0.014582637281756669,0.01294969998544048,0.016283367105115767
18.4,0.014949971685323013,0.013325825083279312,0.016641121858051482
18.5,0.015319158962319055,0.013704075191941067,0.0170011067827032
18.6,0.015690171351736577,0.014080413203027095,0.01735789798395212
18.7,0.016062980949935128,0.014461216946958138,0.017716340296596272
18.8,0.01643755970895948,0.014848362976899163,0.018076407854515197
18.9,0.01681387943482788,0.015239191953830573,0.018445823863195387
19,0.017191911785790537,0.01563166075242823,0.01881798881011388
19.1,0.017571628270557527,0.016014477541241634,0.019191623109329363
19.2,0.017953000246495463,0.016402503428182023,0.019566682380093268
19.3,0.01833599891779237,0.016790733746279884,0.019941518770678734
19.4,0.01872059533358967,0.017181493930163973,0.020314304322768463
19.5,0.019106760386080977,0.01757692790948099,0.020687385740292455
19.6,0.019494464808576473,0.01797590209405647,0.021070635056004254
19.7,0.019883679173532426,0.0183709073812043,0.02145459744467643
19.8,0.020274373890544834,0.018768922502052702,0.021839119087248754
19.9,0.020666519204306316,0.019169710285478262,0.022222335725098175
20,0.0210600851925256,0.019575056176394833,0.022610445806009544
20.1,0.021455041763808354,0.019981385129486533,0.022994527380564872
20.2,0.021851358655498837,0.020387497820043753,0.023379528544457302
20.3,0.022249005431481124,0.020796716666823943,0.02376558458914171
20.4,0.022647951479938963,0.02121053121593974,0.024154770668352817
20.5,0.023048166011073463,0.021617313704880008,0.024542394648105294
20.6,0.023449618054777244,0.022030055505504922,0.024938883227455973
20.7,0.023852276458264286,0.02244454620438495,0.02534068068894727
20.8,0.024256109883654186,0.02286321131219636,0.02573651861010335
20.9,0.024661086805509706,0.02327838830988614,0.026137832792907593
21,0.025067175508326576,0.023692270111068336,0.026535731587858873
21.1,0.02547434408397405,0.024103899423532787,0.026934965920740246
21.2,0.025882560429085363,0.02451727595043113,0.02733386511643806
21.3,0.026291792242396483,0.02493175674672877,0.02773361704329715
21.4,0.02670200702203188,0.02534730882146911,0.028134415462373268
21.5,0.027113172062736224,0.02576359798931768,0.02853597576711573
21.6,0.02752525445305009,0.02618081284105976,0.0289394132490797
21.7,0.027938221072428746,0.026598999925105934,0.029343493735430843
21.8,0.02835203858830221,0.0270181255260928,0.029750923537086423
21.9,0.028766673453074994,0.02743963753179227,0.030159368149315406
22,0.029182091901064213,0.027856755232303996,0.030568271132386957
22.1,0.02959825994537405,0.028275297496424746,0.03097778875212564
22.2,0.03001514337470514,0.02869882797891061,0.03139097651955719
22.3,0.030432707750097036,0.02912334533695384,0.03180666171194768
22.4,0.03085091840160177,0.02954886881582576,0.03221865596120489
22.5,0.03126974042488694,0.029973424787025076,0.0326266520523643
22.6,0.031689138677766016,0.030402860039601784,0.03303156398591805
22.7,0.03210907777665415,0.030827279315676193,0.03343781611435517
22.8,0.03252952209294728,0.031256598475787774,0.03386351809555466
22.9,0.03295043574932226,0.031680835253337945,0.03427748949774422
23,0.033371782615956046,0.032108678116510726,0.03468657565736654
23.1,0.03379352630666138,0.032536103926620846,0.035097102896136885
23.2,0.034215630174936784,0.03296711140848273,0.035511565496500884
23.3,0.034638057309928236,0.03339481873307666,0.03592398617904338
23.4,0.035060770532300015,0.03382493095261201,0.03634417782084851
23.5,0.03548373239001222,0.03425966613014033,0.03676172017886284
23.6,0.0359069051540019,0.034693559398322305,0.037180205674634
23.7,0.03633025081376525,0.035130801123424225,0.037598162239668505
23.8,0.03675373107283785,0.03556207621295704,0.0380139428967646
23.9,0.03717730734416971,0.035986719817209675,0.03843014183085261
24,0.037600940745392275,0.03641933357909003,0.03884490660615373
24.1,0.038024592093973776,0.03684573894516797,0.03926554240146609
24.2,0.03844822190225976,0.03726614704100614,0.03969330781129256
24.3,0.03887179037239526,0.03769764019285435,0.04012455639879545
24.4,0.03929525739112466,0.03813049024746845,0.040540274231345215
24.5,0.0397185825244659,0.03856125665373902,0.040951149736046716
24.6,0.04014172501225457,0.03898472418689408,0.04135771316585299
24.7,0.040564643762554274,0.03941215036563587,0.041764623878754265
24.8,0.04098729734592868,0.03983847681672194,0.042177458472180684
24.9,0.04140964398957083,0.04026637469883576,0.04260132638297599
25,0.0418316415712854,0.04069895807773635,0.04302442268268113
25.1,0.04225324761331872,0.04112192365443408,0.043437143599713304
25.2,0.04267441927603192,0.04154818935947256,0.04385622332999223
25.3,0.04309511335141187,0.041982207858711484,0.044271896978884895
25.4,0.0435152862564145,0.042413882073688194,0.04469416215934151
25.5,0.04393489402613507,0.04283563665462158,0.04510942328068818
25.6,0.04435389230679923,0.04325392126753908,0.04552721873613401
25.7,0.044772236348569264,0.043678659273231654,0.04594018792448302
25.8,0.045189880998158766,0.04410057493429652,0.046347442207635994
25.9,0.04560678069124936,0.0445217905085471,0.04676032430417494
26,0.04602288944470266,0.04494234341662752,0.04717490886344004
26.1,0.046438160848560034,0.04535666468739505,0.047583748681816446
26.2,0.04685254805782305,0.04577487656389849,0.04799159325929275
26.3,0.047266003784006645,0.04619401395869046,0.04839905462939183
26.4,0.04767848028645674,0.04661493113998028,0.0488081151243715
26.5,0.0480899293634242,0.04702522272563214,0.04921573618384869
26.6,0.0485003023428858,0.04743969888657518,0.04963031188726587
26.7,0.04890955007310345,0.04785203418402355,0.05003970361197839
26.8,0.0493176229129116,0.048267019984469105,0.050439707961039484
26.9,0.04972447072172286,0.0486760178525964,0.05084280852319548
27,0.050130042849241496,0.04908431872232724,0.05124659326557306
27.1,0.050534288124873226,0.049489979099326675,0.051647458808377913
27.2,0.05093715484682035,0.049893590480303486,0.05204999533934471
27.3,0.05133859077084971,0.05029420274120221,0.05245236742389097
27.4,0.051738543098720835,0.05069739483809173,0.052852634953722645
27.5,0.05213695846626146,0.051098333100158363,0.053246290179226455
27.6,0.05253378293107554,0.05149636510177687,0.05364144008372536
27.7,0.052928961959870416,0.05189130800221525,0.05403728416792771
27.8,0.053322440415386765,0.05228741564905245,0.054430804565303706
27.9,0.053714162542915944,0.05268150885000233,0.05482900130814147
28,0.054104071956387674,0.05306697021335696,0.05522228498117858
28.1,0.05449211162401031,0.05344163661553929,0.055613482891173224
28.2,0.05487822385344532,0.05382710348183488,0.056002387219566754
28.3,0.05526235027649642,0.05421339456098176,0.05639487707071321
28.4,0.055644431833292624,0.05459791106819206,0.056775734997055856
28.5,0.05602440875594404,0.05498064342465471,0.05715049658033291
28.6,0.05640222055164741,0.05535920305953866,0.057526140030249695
28.7,0.05677780598521757,0.055730999592462374,0.05789399835485233
28.8,0.05715110306101984,0.05610541286579876,0.058275154542731925
28.9,0.05752204900427649,0.05647512272019785,0.05864221826465517
29,0.05789058024171989,0.05684552221870867,0.05900727681306119
29.1,0.05825663238156212,0.05720925880423737,0.0593673781930517
