temp,mean,conf_lower,conf_upper
0,-0.005358125540753166,-0.0063157441397463055,-0.004291822867192937
0.1,-0.005321658456633269,-0.00628507157277879,-0.004249627493927582
0.2,-0.0052831366939829595,-0.006250546881198973,-0.00420552216295994
0.3,-0.0052425697476339815,-0.00621372553018984,-0.004159515866319497
0.4,-0.005199967140677052,-0.006174717568432765,-0.004111617622919299
0.5,-0.005155338424671247,-0.0061335331434203095,-0.004061836478755361
0.6,-0.005108693179855743,-0.006092270735793667,-0.004010181507108292
0.7,-0.005060041015363904,-0.006049227000734207,-0.003956661808747158
0.8,-0.005009391569439775,-0.006004080582163616,-0.0039012865121356437
0.9,-0.004956754509657016,-0.005956841403475809,-0.003844064773640523
1,-0.0049021395331402765,-0.0059075194180314315,-0.0037850057777424695
1.1,-0.004845556366789105,-0.005856062745799867,-0.003724118737249264
1.2,-0.00478701476750439,-0.005802534871341103,-0.0036614128935114187
1.3,-0.00472652452241737,-0.005746953053528182,-0.003596897516640246
1.4,-0.004664095449121285,-0.0056883049837412976,-0.003530581905728439
1.5,-0.004599737395905655,-0.00562688602124786,-0.0034624753890731574
1.6,-0.004533460241993285,-0.005563416708792268,-0.0033925873244016968
1.7,-0.0044652738977799915,-0.005497907494770672,-0.0033209270990997596
1.8,-0.004395188305077104,-0.005430368860659684,-0.0032475041304423653
1.9,-0.004323213437356811,-0.005360811321275148,-0.0031723278658274553
2,-0.00424935930000034,-0.005289245425033923,-0.003095838167312053
2.1,-0.004173635930549068,-0.00521561772084283,-0.0030180368201823612
2.2,-0.004096053398958571,-0.005139969780248215,-0.0029384342828679497
2.3,-0.004016621807855681,-0.005062344043011148,-0.002854714350314894
2.4,-0.003935351292798587,-0.004982751210644955,-0.002770210507718517
2.5,-0.003852252022540006,-0.004901202019697162,-0.0026845794431174437
2.6,-0.003767334199293528,-0.004817707242031283,-0.002597260291654715
2.7,-0.0036806080590031207,-0.004732277685111997,-0.002508262769342769
2.8,-0.0035920838716158804,-0.004645774499373891,-0.002417596624633237
2.9,-0.0035017719413580825,-0.004559142530893735,-0.002325271638680647
3,-0.0034096826070145496,-0.004470643492660715,-0.0022312976256092963
3.1,-0.0033158262422114337,-0.0043802880171395055,-0.00213577842296231
3.2,-0.0032202132557024327,-0.0042880867724865886,-0.0020386738377005955
3.3,-0.003122854091658514,-0.004194050462843068,-0.0019399516776387746
3.4,-0.0030237592299611976,-0.004097295154210225,-0.001839621876416148
3.5,-0.0029229391864994394,-0.003997145285005034,-0.0017376944019634778
3.6,-0.0028204045134702094,-0.003895163055073487,-0.0016341792567895151
3.7,-0.0027161657996827805,-0.0037926032819143004,-0.0015290864782710719
3.8,-0.002610233670866821,-0.003688924821978003,-0.001422426138946706
3.9,-0.002502618789984346,-0.003583468906848862,-0.001313751723770635
4,-0.002393331857545564,-0.0034762465511004206,-0.0012019084901617994
4.1,-0.0022823836119287267,-0.003367268807942619,-0.0010910896620694769
4.2,-0.002169784829704014,-0.003256546769550449,-9.803118717794299e-4
4.3,-0.002055546325961528,-0.003144091567396774,-8.659660681907825e-4
4.4,-0.001939678954643488,-0.0030298878414012787,-7.506292639092172e-4
4.5,-0.0018221936088806394,-0.002913849246362467,-6.341980309876133e-4
4.6,-0.0017031012213330199,-0.0027961095651233467,-5.162903471897085e-4
4.7,-0.0015824127645350974,-0.0026766801096910348,-3.9691648836614774e-4
4.8,-0.0014601392512453796,-0.002555572233199197,-2.7608676803148437e-4
4.9,-0.0013362917348005755,-0.002432797330268398,-1.538115376945493e-4
5,-0.0012108813094743533,-0.0023083854330121453,-3.0152046484908298e-5
5.1,-0.0010839191108408188,-0.002182398862951688,9.492242490105872e-5
5.2,-9.554163161427585e-4,-0.002053766458754465,2.2141071693814731e-4
5.3,-8.25384144664743e-4,-0.0019227004953329266,3.493023352501777e-4
5.4,-6.938338581111828e-4,-0.0017900083920766416,4.78586745824055e-4
5.5,-5.607767609893888e-4,-0.0016557020092343184,6.092533746535012e-4
5.6,-4.2622420099777214e-4,-0.0015197932522421393,7.412916073780372e-4
5.7,-2.901875694192326e-4,-0.001382294072135509,8.746907889171656e-4
5.8,-1.5267830151984317e-4,-0.0012450115275817384,0.001009440223099661
5.9,-1.370787695293132e-5,-0.001106851559655714,0.0011455291722878706
6,1.267121798313814e-4,-9.670667856511157e-4,0.0012829468569969748
6.1,2.685702991710393e-4,-0.00082561952995031235,0.0014216824555090687
6.2,4.118548657712478e-4,-6.803414984346179e-4,0.001561725103482015
6.3,5.565542182778916e-4,-5.309913938408184e-4,0.0017030638935529566
6.4,0.00070265664884506065,-3.800049959420517e-4,0.0018456878749363885
6.5,8.501504026966159e-4,-2.2745106924700867e-4,0.001989586053016728
6.6,9.990236776816369e-4,-7.445998714619904e-5,0.00213474738893523
6.7,0.001149264623823679,7.841291962269506e-5,0.0022811607991711966
6.8,0.001300861342863718,2.3274273809256648e-4,0.002428815155117341
6.9,0.0014538018877966455,3.8851692070428066e-4,0.0025776992826492275
7,0.0016080742624012528,5.457228683253997e-4,0.0027278019616886686
7.1,0.001763666420763512,7.043479297501407e-4,0.0028791119257609646
7.2,0.0019205662667930877,8.643794011922129e-4,0.003031617861545881
7.3,0.0020787616537329273,0.0010258045257703803,0.0031853084084222452
7.4,0.002238240383661799,0.0011886104929866093,0.003340172158006043
7.5,0.002398990206989678,0.001352784438196699,0.0034961976536819084
7.6,0.0025609988219458084,0.0015183134420732023,0.0036533733901278668
7.7,0.0027242538740592987,0.001685184530060512,0.0038116878128331955
7.8,0.0028887429556321937,0.0018533846718220162,0.003971129317609339
7.9,0.0030544536052047253,0.0020229007806790464,0.00413168625009363
8,0.0032213733070127894,0.0021937197130416338,0.004293346905245815
8.1,0.0033894894904372957,0.0023658282678307332,0.004456099526837141
8.2,0.0035587895294454017,0.002539213185891905,0.004619930017672395
8.3,0.003729260742023415,0.0027119568593527814,0.004784811874924435
8.4,0.0039008903896011193,0.002886184478563899,0.004950749683926411
8.5,0.004073665676467542,0.0030638032072282796,0.005117731473400892
8.6,0.004077276067184717,0.0030538774617770996,0.005136379726063372
8.7,0.004084782660400658,0.0030481183264559944,0.005157766005865169
8.8,0.0040961648140939244,0.0030465005665268495,0.005182497979030712
8.9,0.004111401810272457,0.003049015151516297,0.005211059550405513
9,0.0041304728542515285,0.0030555374944880717,0.005245609037515495
9.1,0.004153357073921083,0.0030658654515959534,0.005281732268100984
9.2,0.004180033519002399,0.0030802507094172156,0.005321269267102257
9.3,0.004210481160293813,0.0030986711264535246,0.005364190881442004
9.4,0.004244678888905231,0.00312098515478962,0.005410580576692055
9.5,0.00428260551548135,0.0031470597754923385,0.005460435229752605
9.6,0.004324239769413212,0.003177100484426507,0.005513734994408106
9.7,0.004369560298037957,0.003211114957575899,0.005570459948850477
9.8,0.004418545665826553,0.0032475953149197134,0.005632292964795415
9.9,0.004471174353559145,0.0032874883988970836,0.0056985274721113996
10,0.004527424757487939,0.0033312244446777775,0.005768133433988097
10.1,0.004587275188487217,0.0033812844866295062,0.005841090139101453
10.2,0.004650703871190322,0.0034333444081903436,0.005917376793250658
10.3,0.004717688943113347,0.003485707693216947,0.005997956531387524
10.4,0.004788208453765147,0.003545751578744305,0.006082984027247542
10.5,0.0048622403637435686,0.003611254307744142,0.006165626952974802
10.6,0.0049397625438174185,0.003680541966300486,0.006255153118488115
10.7,0.005020752773994058,0.003753613072160658,0.006347933842968853
10.8,0.00510518874257221,0.0038306051246715924,0.006443919823045081
10.9,0.0051930480451796626,0.003911304303696651,0.006543052491079124
11,0.005284308183795662,0.0039956868481872704,0.006645386043392921
11.1,0.005378946565757513,0.004083728898022037,0.006750864043957659
11.2,0.005476940502751213,0.004175406492955175,0.006859464906830346
11.3,0.005578267209785678,0.00427056917768035,0.006970902143833951
11.4,0.005682903804150179,0.004366997726639144,0.007085353442230802
11.5,0.005790827304354792,0.00446667623794193,0.007202841273679594
11.6,0.005902014629053269,0.0045698726254338904,0.00732255632327925
11.7,0.006016442595948142,0.004676562515331522,0.007445926268630226
11.8,0.006134087920677569,0.004786610179655899,0.007572244565372593
11.9,0.0062549272156835105,0.004899854754028999,0.007698362929049792
12,0.006378936989060947,0.005016384667848254,0.007826865527322644
12.1,0.0065060936433875,0.005135104276872124,0.007959385200451653
12.2,0.006636373474533257,0.005256689379320418,0.008102467363345446
12.3,0.006769752670450234,0.005384383929462022,0.008245513807144526
12.4,0.0069062073099409255,0.005515618101085567,0.00838406045980478
12.5,0.00704571336140576,0.005655226351106172,0.008528898513338781
12.6,0.007188246681568589,0.005798577030127828,0.0086802218166399
12.7,0.007333783014180057,0.005942854911139413,0.00883431604327344
12.8,0.007482297988698185,0.0060847308655019704,0.008991157830794046
12.9,0.007633767118945552,0.0062296042453051205,0.00915072370483962
13,0.007788165801742783,0.006370081663305371,0.00931130453950282
13.1,0.007945469315517513,0.006518972585157368,0.009474169662701619
13.2,0.008105652818888448,0.006677801499695293,0.009639572513172566
13.3,0.008268691349223898,0.0068396860298251,0.009807548791536932
13.4,0.008434559821174026,0.006999732548769895,0.009977430770376812
13.5,0.00860323302517645,0.007160359600036165,0.010147879820482802
13.6,0.008774685625934305,0.007322875957322226,0.01032424384717344
13.7,0.00894889216086626,0.007488363166565745,0.010505083254176819
13.8,0.009125827038527809,0.007658710964203966,0.010686592475786844
13.9,0.009305464537002945,0.007834941676870565,0.010869857092170157
14,0.009487778802265819,0.008014210778820266,0.011055571326874045
14.1,0.009672743846511303,0.00819608618800366,0.011243710458902857
14.2,0.009860333546453926,0.00837897051770077,0.011434249637390578
14.3,0.010050521641594345,0.00856266888891323,0.011627163879934982
14.4,0.01024328173245239,0.008750769968889493,0.011822286086003808
14.5,0.010438587278766088,0.008943083657008718,0.01201745492952048
14.6,0.01063641159765559,0.009134048529057949,0.012211831299176044
14.7,0.010836727861751203,0.009327718695001274,0.01241500517556686
14.8,0.011039509097284671,0.009522733693626911,0.012619620322980087
14.9,0.01124472818214256,0.009721769120416845,0.012827994189732902
15,0.011452357843881012,0.009924687659214854,0.013034800732409792
15.1,0.011662370657700646,0.010130417237261637,0.01324856755481833
15.2,0.011874739044380696,0.010343816828913763,0.013465884922710367
15.3,0.012089435268171304,0.010560689891544087,0.013681341150863172
15.4,0.012306431434642759,0.010779216528196798,0.013898692872205373
15.5,0.012525699488490638,0.01099826257385781,0.014123150381242143
15.6,0.012747211211295646,0.011219872343364875,0.014349029195704972
15.7,0.012970938219236852,0.011443928525938559,0.014566961301233979
15.8,0.013196851960757225,0.011669128002153887,0.01479013486910756
15.9,0.013424923714179963,0.011896020528627614,0.015015674036776935
16,0.013655124585274419,0.012125741884876483,0.01524518801180705
16.1,0.013887425504770175,0.012359703571411454,0.015476441704045265
16.2,0.014121797225817797,0.012587632706253418,0.015709547212694012
16.3,0.014358210321394858,0.012815643031926432,0.015946216098305852
16.4,0.014596635181655599,0.013046559954498792,0.01619140892601838
16.5,0.014837042011222672,0.013285401970285875,0.016437393956646177
16.6,0.015079400826419356,0.013526374409523229,0.016679845579829152
16.7,0.015323681452440466,0.013769035948876737,0.01692424785082655
16.8,0.015569853520460258,0.014009492529317259,0.01717594961474917
16.9,0.0158178864646754,0.014253546296541733,0.017429322205523377
17,0.016067749519281308,0.014503966847537759,0.01768486701869192
17.1,0.01631941171537958,0.014755314104941648,0.01794455839490238
17.2,0.016572841877814853,0.015005612959804255,0.018204395203246345
17.3,0.016828008621938714,0.015266010656422552,0.01846159601238954
17.4,0.017084880350298513,0.015519909285999715,0.018726466374163378
17.5,0.01734342524924904,0.015770562388408096,0.01898960407681819
17.6,0.017603611285484363,0.016024559285490278,0.01924772403443562
17.7,0.017865406202487707,0.016288881402591326,0.019513521073286813
17.8,0.0181287775168967,0.01654629529134881,0.019780729373867965
17.9,0.018393692514781377,0.016812808394262174,0.02005258934728978
18,0.018660118247832265,0.017071740860036967,0.02032688212583781
18.1,0.018928021529455698,0.017333774076007773,0.02059750147320965
18.2,0.019197368930773444,0.017606149400979924,0.02087078744517245
18.3,0.019468126776523632,0.017880065033433732,0.021146624102434272
18.4,0.01974026114085975,0.018156508346992402,0.02141977357354778
18.5,0.020013737843044513,0.01843325034821772,0.02169583559841318
18.6,0.020288522443035098,0.018710538502618633,0.021972710481442462
18.7,0.020564580236956342,0.01898726495472468,0.02225544605219617
18.8,0.02084187625245803,0.019260760564208928,0.022540291622747836
18.9,0.021120375243952598,0.019534598476511743,0.022825832694501086
19,0.021400041687729167,0.01980896288066705,0.023104895611053496
19.1,0.021680839776939784,0.02008469492863018,0.023384113276426775
19.2,0.021962733416453602,0.020362547130236143,0.023670988454181724
19.3,0.022245686217574355,0.02064478055443994,0.02396236171750625
19.4,0.022529661492616572,0.02093018316191548,0.02425896226025214
19.5,0.022814622249335663,0.021214849905475203,0.024549176951087995
19.6,0.023100531185206597,0.021496193678508073,0.02483692732299498
19.7,0.023387350681546133,0.021778664971875514,0.0251286580135646
19.8,0.023675042797472855,0.02206511536926786,0.02542237102071984
19.9,0.023963569263699313,0.022353677240259846,0.025716025290139225
20,0.024252891476150347,0.022638825287389978,0.02600703888475979
20.1,0.02454297048940111,0.02291862201474248,0.026300642271466956
20.2,0.024833767009928412,0.02320372905112861,0.02659707855800196
20.3,0.025125241389168485,0.023493847760869983,0.026892914937464575
20.4,0.02541735361637389,0.023781892574795363,0.02718908904755689
20.5,0.025710063311262306,0.024073037476232288,0.027484622786159672
20.6,0.026003329716449225,0.024357449651214693,0.027779690862583396
20.7,0.026297111689656365,0.024647022125326462,0.028069453328640952
20.8,0.026591367695687443,0.024935833332764248,0.028357225761781502
20.9,0.02688605579816204,0.02522944581142063,0.02864575490189956
21,0.027181133650998602,0.02552076578809957,0.028939485899346293
21.1,0.027476558489636333,0.025810821285740332,0.029238567410759638
21.2,0.027772287121986046,0.02610045161424003,0.029536223655298285
21.3,0.028068275919099113,0.026389761619229728,0.029828377223786888
21.4,0.02836448080554306,0.02667946274357981,0.030123865040712464
21.5,0.028660857249472295,0.02697116908345403,0.030421830456466244
21.6,0.028957360252381218,0.02726587521533312,0.030719692190880915
21.7,0.029253944338526967,0.02755488871950023,0.03101973765850567
21.8,0.029550563544007986,0.027851228450656386,0.031323688487917487
21.9,0.02984717140548404,0.028147787670256004,0.031627225187391396
22,0.03014372094852262,0.0284419385225677,0.031925708885131424
22.1,0.03044016467555597,0.028732190801851392,0.0322230767916625
22.2,0.03073645455343183,0.029026237472739448,0.032516336017924856
22.3,0.03103254200054064,0.029325196231244043,0.032809008454181825
22.4,0.03132837787350043,0.0296222287516571,0.03310117908212259
22.5,0.03162391245338027,0.02991806006302885,0.033400911577832135
22.6,0.03191909543144151,0.03021384331264573,0.0336978713297451
22.7,0.03221387589437541,0.030508006548814918,0.03399744944410566
22.8,0.03250820230901442,0.030801908135278513,0.034293666761334246
22.9,0.03280202250649288,0.031094825611346587,0.03458089325882772
23,0.033095283665832156,0.03138564402889542,0.034867296257504475
23.1,0.033387932296923176,0.03166864418739349,0.035154659068026506
23.2,0.03367991422287819,0.03196212790479047,0.03544102408888202
23.3,0.0339711745617221,0.03225798439183339,0.03573378613841505
23.4,0.03426165770739141,0.032550804964151955,0.036025955771419226
23.5,0.0345513073100078,0.03284376986851748,0.03631137565532966
23.6,0.034840066255390684,0.03313719964235718,0.03659405875584836
23.7,0.03512787664377138,0.033428237008552415,0.03687548461174816
23.8,0.03541467976766936,0.03371857995385552,0.0371555912242991
23.9,0.03570041608888837,0.034004902141235104,0.03743496470489803
24,0.03598502521458776,0.03429157722761257,0.03772061686484837
24.1,0.036268445872381844,0.034576884681143956,0.03800215935166496
24.2,0.03655061588441688,0.03485510837840295,0.038278634084876216
24.3,0.036831472140372155,0.03513719977725098,0.03855329812265292
24.4,0.0371109505693285,0.03542283125373611,0.03882634754654473
24.5,0.037388986110443605,0.03569752775450474,0.039097734703279693
24.6,0.03766551268236987,0.03597006491618566,0.03936739210259282
24.7,0.03794046315134607,0.03624434271402383,0.03963595556151853
24.8,0.038213769297889874,0.03652038028321356,0.03990411976093832
24.9,0.03848536178201311,0.036794995259745306,0.04017336012859471
25,0.038755170106876395,0.0370651000665019,0.04044048958372673
25.1,0.039023122580794455,0.03733446256006671,0.04070537529864912
25.2,0.039289146277496814,0.037604128995168656,0.04097171939632363
25.3,0.03955316699454221,0.0378692493708043,0.04123054059819929
25.4,0.03981510920977785,0.03813312568546897,0.0414883966226356
25.5,0.04007489603572663,0.038404397916281106,0.041744719254894064
25.6,0.040332449171777564,0.038662137668289666,0.04200483324418252
25.7,0.04058768885404483,0.038922626459889025,0.04226251427067477
25.8,0.04084053380275143,0.039184070825682094,0.042510519826920945
25.9,0.04109090116698233,0.03944351713255648,0.04274772083621445
26,0.0413387064666406,0.039690282379199214,0.04299569067682233
26.1,0.041583863531426714,0.039940573485111694,0.04322992850168143
26.2,0.0418262844366479,0.040188313707080654,0.04347104540734257
26.3,0.042065879435648594,0.040433564664092876,0.04369883117104355
26.4,0.04230255688863686,0.040676299059177745,0.04393240164525945
26.5,0.042536223187663334,0.040916005126028165,0.04415644132220939
26.6,0.042766782677489096,0.04115281736530092,0.04438366700642259
26.7,0.04299413757205768,0.04138059651213947,0.04460235814276471
26.8,0.043218187866261734,0.04160028276770863,0.04482156918839852
26.9,0.043438831242669056,0.04181620756607044,0.04505004100505726
27,0.04365596297284379,0.04204227795960064,0.0452667256695293
27.1,0.04386947581286617,0.04226933995264171,0.045473029844879685
27.2,0.044079259892619856,0.04249051424660803,0.04567588726287998
27.3,0.044285202598376455,0.042689017959311876,0.04588089738184847
27.4,0.04448718844816399,0.04289976240265949,0.04608302042252059
27.5,0.04468509895935882,0.04310827584118951,0.04627516391883147
27.6,0.04487881250788764,0.04331426311040912,0.04646646518219037
27.7,0.04506820417836717,0.04351486839004214,0.04665315443341129
27.8,0.0452531456044451,0.04370056806492759,0.046835292243891324
27.9,0.04543350479853177,0.043880939347143766,0.047012709870857275
28,0.045609145970032544,0.04406788894991915,0.04718534765332373
28.1,0.045779929331099145,0.04424534340828658,0.04735257482772572
28.2,0.045945710888817305,0.04441820279701942,0.047515631649964085
28.3,0.0461063422226346,0.0445834945474028,0.04767996264072162
28.4,0.04626167024570364,0.044741917634611175,0.04783248257994317
28.5,0.04641153694867292,0.0448896743347084,0.047975561663761705
28.6,0.04655577912429425,0.04503677935281438,0.048114138357009006
28.7,0.04669422807103292,0.04518577005474411,0.04825133778502366
28.8,0.04682670927365826,0.045327561997181604,0.048378564123941606
28.9,0.04695304205855631,0.045457294554693196,0.04850666691694008
29,0.0470730392212381,0.04558008919579746,0.04862063272220467
29.1,0.04718650662320994,0.045693398947079154,0.04873291220032789
29.2,0.04729324275502278,0.04579820380926251,0.0488419763365374
29.3,0.047393038261915925,0.045907881975947015,0.04893337768157188
29.4,0.047485675428009175,0.0459979338531643,0.049012251670434
