temp,mean,conf_lower,conf_upper
0,-0.018678121882661103,-0.03712782174266243,-0.002772404292838211
0.1,-0.018273515226857884,-0.03664570954744163,-0.002431708210386326
0.2,-0.01786529501799944,-0.03616137158486052,-0.002087566140577009
0.3,-0.0174534376754108,-0.03570006763427696,-0.0017399505461479902
0.4,-0.017037919643652588,-0.035234944559289855,-0.001388833827145903
0.5,-0.016618717397548777,-0.03476598088242193,-0.0010341883250858455
0.6,-0.016195807447339228,-0.034285088878244344,-6.759863272223741e-4
0.7,-0.015769166343970353,-0.03378120065329723,-3.142000709591003e-4
0.8,-0.01533877068452677,-0.03329443865700792,5.1198251581643234e-5
0.9,-0.014904597117794627,-0.03279095546112455,4.202364888618963e-4
1,-0.014466622349973701,-0.032278385372082476,7.929425250738833e-4
1.1,-0.014024823150531385,-0.0317619322790595,0.0011693442751423058
1.2,-0.013579176358206102,-0.031240793861232897,0.0015494696795543533
1.3,-0.013129658887163942,-0.030715195216378065,0.0019332117195287792
1.4,-0.012676247733304724,-0.03018566681522732,0.0023354224071487698
1.5,-0.012218919980734155,-0.029652191841064313,0.002741419751504196
1.6,-0.011757652808382757,-0.029120355072904565,0.003142271431216025
1.7,-0.011292423496799098,-0.02858811239503488,0.0035521018586939287
1.8,-0.010823209435114445,-0.028065401673407993,0.003968201580134589
1.9,-0.010349988128157961,-0.027518836369185888,0.004387773917952965
2,-0.00987273720376508,-0.02698310217431539,0.004812039761552048
2.1,-0.009391434420251754,-0.026443243328555705,0.00524103611457008
2.2,-0.008906057674073653,-0.025899241831421962,0.005673262496734284
2.3,-0.0084165850076659,-0.025351079895073163,0.006115289465294844
2.4,-0.007922994617476198,-0.02479873995267601,0.006561727951052351
2.5,-0.007425264862178038,-0.024241278215409584,0.007003500222431989
2.6,-0.0069233742710893,-0.023679259786023272,0.007444725858423134
2.7,-0.006417301552783139,-0.023113011253865882,0.007906375821255598
2.8,-0.005907025603904936,-0.022542516136853978,0.008355649269123695
2.9,-0.005392525518191749,-0.021967758220561656,0.00881334493684064
3,-0.004873780595708033,-0.021388721567737107,0.009279093730610526
3.1,-0.004350770352282984,-0.020805390528005167,0.009748724568806339
3.2,-0.003823474529181914,-0.02021759349968779,0.01022575677068437
3.3,-0.003291873102990339,-0.019615968201345032,0.010723528478758362
3.4,-0.002755946295724565,-0.018997111004075567,0.011221494043698602
3.5,-0.0022156745851838466,-0.01837382394027584,0.011709697985376924
3.6,-0.0016710387155179363,-0.017746385352045216,0.01220215252679208
3.7,-0.0011220197080579752,-0.0171175907772635,0.01269761701883992
3.8,-5.685988723769797e-4,-0.016512465068562503,0.013197133803832143
3.9,-1.0757817600348663e-5,-0.01590280731674612,0.013700976181857425
4,5.515215360225034e-4,-0.015278773180801637,0.014209166254455105
4.1,0.0011182569452947155,-0.01465090439119738,0.014721412460084984
4.2,0.0016894658319834277,-0.014008821258436204,0.015229831209937598
4.3,0.0022651652704527847,-0.013361713488000339,0.01575820579158817
4.4,0.002845371975043809,-0.012710156251043783,0.016286638777867336
4.5,0.003430102287155845,-0.012055686345033435,0.016819089671066673
4.6,0.0040193721620544465,-0.011408584253493479,0.017363981419140168
4.7,0.0046131971553901585,-0.010741687495969526,0.01791367076515004
4.8,0.0052115924094122135,-0.010073879136473323,0.018464846786263134
4.9,0.005814572638892235,-0.009402532792394305,0.019002752558459523
5,0.006422152116741964,-0.008740035475385727,0.01954531117396897
5.1,0.007034344659315683,-0.00807890691280276,0.020130273464809088
5.2,0.007651163611393341,-0.007400138972582938,0.020705913621004667
5.3,0.008272621830843041,-0.006731378670120327,0.021292978145470164
5.4,0.008898731672959348,-0.006051563691755989,0.021861464142759423
5.5,0.009529504974446323,-0.00539192782179548,0.022462945431459002
5.6,0.010164953037095026,-0.004684083543960139,0.023073799661047317
5.7,0.010805086611077763,-0.004011891555910727,0.023666362563364945
5.8,0.0114499158778964,-0.0033276205419060477,0.02427891764684054
5.9,0.0120994504329896,-0.002622334216942239,0.024883808372630486
6,0.012753699267946172,-0.0019256369860670905,0.025490007131081977
6.1,0.013412670752359579,-0.0012360811680473954,0.026111272292387872
6.2,0.014076372615297428,-5.164590789060106e-4,0.026738146102888823
6.3,0.014744811926378831,2.1312364383237192e-4,0.027366050331170743
6.4,0.015417995076464075,9.490400279141137e-4,0.02799200106671706
6.5,0.016095927757929063,0.0016803798032016815,0.028617678655113273
6.6,0.016778614944553405,0.002416117037808592,0.029256098569154416
6.7,0.01746606087096131,0.003141698379607774,0.02990578888103414
6.8,0.018158269011647687,0.0038832445150241215,0.030572459855101774
6.9,0.01885524205959216,0.004615416582807522,0.03124380411135987
7,0.019556981904401416,0.005343687980164005,0.03191940075155181
7.1,0.02026348961002039,0.006060859119125864,0.03259985814418401
7.2,0.02097476539198423,0.006798986770370691,0.03328600056484868
7.3,0.02169080859420175,0.0075487892253940925,0.033976275331605826
7.4,0.022411617665256622,0.008275424496378352,0.03466358324962067
7.5,0.023137190134255137,0.009011722041655304,0.035348553301123575
7.6,0.02386752258615038,0.009777041208976295,0.03605282934107554
7.7,0.02460261063658281,0.01054723208320129,0.03676745868049856
7.8,0.025342448906214565,0.011320069195752056,0.03748887456027493
7.9,0.026087030994526417,0.012078962340436157,0.038220884873206504
8,0.02683634945311203,0.01285257836411622,0.03894498725282239
8.1,0.027590395758426867,0.013633285027046874,0.039667099383718096
8.2,0.028349160283979324,0.01441827551464401,0.04040864312362705
8.3,0.029112632271976524,0.015203938825906357,0.04114791509199871
8.4,0.02988079980440611,0.01598612837206343,0.04190170410567044
8.5,0.03065364977352475,0.01677200224676558,0.04266710661728208
8.6,0.031609906718546577,0.017804667700221335,0.04356491910126277
8.7,0.03257264439510971,0.01884561885006767,0.04447027982551566
8.8,0.03354186265179665,0.019881885051134487,0.04538160992270435
8.9,0.03451756014037416,0.020905007309951713,0.04630413083597064
9,0.03549973428334158,0.021967959249217316,0.047234668930888055
9.1,0.03648838124082693,0.023031408602686966,0.04814922093343329
9.2,0.037483495876819595,0.02408550317928307,0.04908424851170314
9.3,0.03848507172469501,0.02514342349354134,0.0500251211740915
9.4,0.03949310095207198,0.026211804055463733,0.05097938352995194
9.5,0.040507574324934625,0.027289157696840816,0.051927921184480016
9.6,0.04152848117105096,0.02837132071776167,0.05288477195097269
9.7,0.042555809342647966,0.02946065428879368,0.05384457878399773
9.8,0.04358954517834296,0.030562432441159925,0.05482400694031833
9.9,0.044629673464302855,0.031673014183402896,0.05580478813558909
10,0.045676177394651185,0.03277574286672383,0.056789996789861664
10.1,0.04672903853106164,0.03389948300810243,0.05778514813576964
10.2,0.047788236761557024,0.03502132604635384,0.05879358160034556
10.3,0.048853750258502304,0.03614825677180612,0.059814089740062415
10.4,0.04992555543575089,0.037294595526899836,0.06084944014931458
10.5,0.05100362690494137,0.038431102359875756,0.06188257658577609
10.6,0.05208793743095547,0.03958093300709635,0.06293308045245592
10.7,0.053178457886475405,0.04074432074349879,0.06397923818349803
10.8,0.05427515720564863,0.04190942315671671,0.06503513340085915
10.9,0.055378002336868015,0.04309000440962427,0.06609805685842235
11,0.056486958194596315,0.04428091457603851,0.0671584976263982
11.1,0.05760198761027607,0.04547844271454471,0.06822588524213938
11.2,0.05872305128225347,0.04665134674946025,0.06928751292232589
11.3,0.05985010772476135,0.047845344242211346,0.07036524196231486
11.4,0.06098311321587385,0.04904617469288408,0.07144692328277313
11.5,0.062122021744483946,0.05023075293881967,0.07253755882607518
11.6,0.06326678495623422,0.05145544443947399,0.07362122127600852
11.7,0.06441735209840599,0.05269268348608308,0.07473223038635739
11.8,0.06557366996374075,0.05391743112676835,0.07583747665212207
11.9,0.06673568283318482,0.05514692178361112,0.07694850065090499
12,0.06790333241754049,0.05638760220648667,0.07807403310218593
12.1,0.06907655779797911,0.05761792048506653,0.07919689975599163
12.2,0.07025529536541347,0.05884810955876636,0.08032191527314386
12.3,0.0714394787587353,0.06008646445454149,0.08146367654176909
12.4,0.07262903880182531,0.06133972772149621,0.08259741078584337
12.5,0.07382390343940953,0.06256919927564043,0.08374287911262171
12.6,0.07502399767166928,0.06381112898211849,0.08488295600497789
12.7,0.07622924348760735,0.06506567120586501,0.08602855916144622
12.8,0.07743955979714928,0.06633656825204881,0.08718984766535279
12.9,0.07865486236195524,0.06763299874076112,0.08835681792436781
13,0.0798750637249312,0.06893495451996332,0.08953162018951616
13.1,0.0811000731383838,0.0702291796114666,0.09070716012095598
13.2,0.08232979649086197,0.0715470912743033,0.09188226182499395
13.3,0.08356413623256759,0.07284651065548339,0.09306132374425014
13.4,0.08480299129939067,0.07416040889857528,0.09424971979574044
13.5,0.08604625703551555,0.07548954182816249,0.09544621744920864
13.6,0.08729382511457401,0.07681737640958072,0.09664756594848198
13.7,0.0885455834592836,0.07815491765816743,0.097844076237518507
13.8,0.08980141615965948,0.07946757679397273,0.09903286678036122
13.9,0.0910612033896217,0.08081107523451107,0.10022476897894331
14,0.09232482132207648,0.08214180500709012,0.10141983632743318
14.1,0.09359214204242955,0.083489294374617,0.10261789438159206
14.2,0.0948630334604364,0.08483560387368409,0.10382285919599907
14.3,0.09613735922047889,0.08619315429897356,0.1050561717406376
14.4,0.09741497861014087,0.08753602197249032,0.10627673576627286
14.5,0.09869574646708618,0.08890495534407575,0.10750981914057334
14.6,0.09997951308421921,0.09026767066192634,0.10872897882327184
14.7,0.10126612411310082,0.09163496349035756,0.10994891519608804
14.8,0.10255542046552774,0.09300561691916434,0.11116659532022506
14.9,0.10384723821341041,0.09436821658742828,0.11239754805629643
15,0.10514140848667536,0.09573450244375045,0.11361296013477348
15.1,0.10643775736935962,0.09710440131789512,0.11484752909159839
15.2,0.10773610579379428,0.09847600306195049,0.11607366107713052
15.3,0.10903626943283823,0.09984759511102287,0.11729935894648
15.4,0.11033805859009266,0.10122281464118577,0.1185256688227642
15.5,0.1116412780882024,0.10259673328577175,0.11976323483219
15.6,0.1129457271549999,0.10397262968120709,0.12099408745273521
15.7,0.11425119930767785,0.1053608267775428,0.12223540498616615
15.8,0.11555748223474588,0.10674404211643819,0.12347172480499222
15.9,0.11686435767591169,0.10811687521511634,0.1247151911217226
16,0.11817160129976162,0.10950309872966457,0.12595330329524382
16.1,0.11947898257915962,0.11090162436780485,0.12720053455647162
16.2,0.1207862646644991,0.11229937137545637,0.12843949062374738
16.3,0.12209320425452203,0.11369749805372145,0.12969534641236685
16.4,0.1233995514648843,0.11508467704113892,0.13096818570534105
16.5,0.12470504969430479,0.11647722480959538,0.13220496215153346
16.6,0.12600943548833882,0.11787788087292389,0.13345086174155937
16.7,0.1273124384006355,0.11927462398433672,0.13469504875036042
16.8,0.12861378085172476,0.12067632781879366,0.13591026904624173
16.9,0.129913177985229,0.12206216952099214,0.13712834790488213
17,0.13121033752156125,0.12344737190025706,0.13833479554589387
17.1,0.13250495960887126,0.12484733215347371,0.1395684026896438
17.2,0.13379673667144837,0.12624526292910848,0.14076941151504693
17.3,0.13508535325530763,0.12760080083875755,0.14198615651205276
17.4,0.13637048587101736,0.1289415189756627,0.14318927504255896
17.5,0.13765180283379613,0.13026929368459061,0.1443872068127027
17.6,0.13892896410061623,0.13160604272518397,0.14560251886715603
17.7,0.1402016211045239,0.13298784239798078,0.1467913498958714
17.8,0.14146941658593565,0.13432483041076254,0.14798523303065003
17.9,0.14273198442089324,0.13569102212384668,0.14917352699006534
18,0.14398894944635604,0.13704235149801783,0.15035270784987748
18.1,0.14523992728233176,0.1383771007013464,0.1515200829373119
18.2,0.1464845241507669,0.13968881726184054,0.15270043308198827
18.3,0.14772233669139206,0.14101622888735163,0.15387720689179954
18.4,0.14895295177415285,0.14231579606385897,0.15506893729312846
18.5,0.150175946308359,0.14362501534801486,0.15623164930553518
18.6,0.15139088704851772,0.1449288756559179,0.1573939587872189
18.7,0.15259733039660334,0.14620058543948775,0.15853876225447727
18.8,0.15379482220092627,0.14746489282011593,0.1596679731074481
18.9,0.15498289755146916,0.14873994216054173,0.16077835893374423
19,0.15616108057150907,0.14997521512701706,0.16188705293317024
19.1,0.15732888420567398,0.15119457456274704,0.16298843378823377
19.2,0.15848581000417267,0.15242426565869532,0.16407955850566935
19.3,0.1596313479033234,0.15363242226116025,0.1651876976106484
19.4,0.16076497600214817,0.15482599595289423,0.16626948589893698
19.5,0.1618861603350566,0.15599323914196395,0.16733253021737732
19.6,0.16299435464059747,0.15717219393225362,0.16839441788910006
19.7,0.1640890001260889,0.1583093245062714,0.16946258157650795
19.8,0.16516952522812717,0.15943879220365742,0.17049824024685367
19.9,0.16623534536896384,0.16057791442082092,0.17150284616463174
20,0.16728586270858808,0.1616862635980153,0.17249197458573015
20.1,0.16832046589242228,0.1627719399498333,0.17346593905195712
20.2,0.1693385297947299,0.16383924820568804,0.1744238097819599
20.3,0.17033941525745872,0.1649045371780144,0.17540995868343562
20.4,0.17132246882455143,0.16596017972821006,0.17635053331697967
20.5,0.17228702247162736,0.1669921829739931,0.1772759786813294
20.6,0.17323239333098633,0.16801307083880104,0.17817921003642537
20.7,0.17415788341186583,0.16901185941236913,0.1790593092686521
20.8,0.17506277931567232,0.16996326680923088,0.17992782296071966
20.9,0.17594635194650038,0.170899203968205,0.18078184705930503
21,0.17680785621649503,0.17179161397693057,0.1816091872793869
21.1,0.17764653074602405,0.17268189511519388,0.18241067198406186
21.2,0.17846159755898788,0.17355171331139393,0.18316294532301097
21.3,0.17925226177245107,0.1744069811007336,0.18391994397787026
21.4,0.18001771128112481,0.17522746484475543,0.18463681894819386
21.5,0.1807571164364779,0.17602104766843157,0.18534815045729955
21.6,0.18146962972014907,0.176779684624135,0.1860475511343324
21.7,0.18215438541171985,0.17752189687388298,0.18669287292760656
21.8,0.18281049925090304,0.17823545941503616,0.18731355659945154
21.9,0.18343706809381716,0.1789176096820111,0.18788491024884885
22,0.18403316956333465,0.17955612324808495,0.18840710456396947
22.1,0.1845978616935831,0.1801585932369474,0.18897147045624052
22.2,0.1851301825679988,0.18074417266203424,0.1894810741015871
22.3,0.1856291499515848,0.18128591167434988,0.1899550946773825
22.4,0.18609376091649638,0.18180178105300446,0.19036412580515266
22.5,0.186522991461416,0.18226028009338496,0.19076462382485088
22.6,0.18691579612444126,0.18273852464496954,0.19112554755405772
22.7,0.18727110758914495,0.18311926209185342,0.19146505522472154
22.8,0.18758783628405756,0.18348230462571516,0.19174285693185805
22.9,0.18786486997525415,0.18380380864722304,0.19200508450988524
23,0.18810107335209897,0.18407560038901943,0.19219375498616292
23.1,0.18829528760561837,0.1842996988353119,0.19235874684675616
23.2,0.18844633000000838,0.18447298415194044,0.19250495467827866
23.3,0.1885529934367301,0.18460019691403762,0.1926120434699957
23.4,0.18861404601114035,0.1846800291900761,0.19265210754165485
23.5,0.1886282305613814,0.18472075749165645,0.19266485416361068
23.6,0.18859426421022657,0.18465289976614482,0.19265277204618908
23.7,0.18851083789835715,0.1845478304714316,0.1925849857720918
23.8,0.18837661591032512,0.18439608233189306,0.19247808739296424
23.9,0.18819023539205332,0.1841816466037769,0.19231717329412865
24,0.18795030586038913,0.1839056850864226,0.19217469069326099
24.1,0.18765540870442515,0.18352698218082747,0.1919470972534639
24.2,0.18730409667784836,0.1830896012362496,0.19170434263590197
24.3,0.1868948933835875,0.1826174662716997,0.19137931287818372
24.4,0.18642629274876948,0.18201763688811223,0.19101565300573684
24.5,0.18589675849160542,0.18131351502468995,0.19060646109986423
24.6,0.18530472357863675,0.18056278539911727,0.19014231275889562
24.7,0.18464858967339054,0.17980043877198243,0.18968173796938892
24.8,0.1839267265752061,0.17890661530183047,0.18911667202361604
24.9,0.18313747164894095,0.17789443793454984,0.18854450998855035
25,0.182279129245065,0.17682993403795094,0.1878840160709102
25.1,0.18134997010967374,0.17569977409171744,0.18714527796487937
25.2,0.18034823078509749,0.17447034212097665,0.18635618360531958
25.3,0.17927211299967666,0.17318334064800123,0.185482699352883
25.4,0.17811978304813386,0.1717801358749585,0.18455285125824858
25.5,0.17688937116101427,0.17029919935415097,0.18359658839012657
25.6,0.17557897086349633,0.1687363504852465,0.1825832621060775
25.7,0.17418663832386044,0.1670711050917732,0.18153406555949114
25.8,0.1727103916904949,0.16530486429975327,0.18041497774073864
25.9,0.1711482104182312,0.16341944353991267,0.17918659779552393
26,0.1694980345833053,0.16146267650331336,0.1778678613881912
26.1,0.16775776418653648,0.15939956762902888,0.17650929229040221
26.2,0.16592525844539568,0.15715537611153405,0.17506304630656813
26.3,0.163998335073621,0.1548568006563066,0.17355480621944933
26.4,0.16197476954949713,0.15244140891885316,0.17190641035743648
26.5,0.1598522943710166,0.14988393183503498,0.17016262841490187
26.6,0.15762859829959225,0.1471347350113547,0.16835508507269892
26.7,0.1553013255905749,0.1442945345657378,0.16648446383024773
26.8,0.15286807521082518,0.14136247939908067,0.16452462853285185
26.9,0.1503264000438292,0.13840351129993647,0.162470429452166
27,0.14767380608087627,0.13529617408856331,0.16033311732036462
27.1,0.1449077515994957,0.13195636774034497,0.15812022781129723
27.2,0.14202564632749876,0.1285502654091432,0.15577477691871394
27.3,0.13902485059369002,0.12489893333922308,0.15334270283712736
27.4,0.13590267446438747,0.12110122372081442,0.15080315621019702
27.5,0.13265637686517212,0.11714764681976544,0.14822067487725
27.6,0.12928316468859552,0.11312040907557422,0.14554105423782265
27.7,0.12578019188675188,0.10890583875424609,0.1427552936474089
27.8,0.12214455854912415,0.10455026079203494,0.1398758593764162
27.9,0.11837330996468626,0.10004180676522258,0.1368009925302302
28,0.11446343566874556,0.09537159161479083,0.13360098113401384
28.1,0.1104118684743905,0.09053394133714829,0.13027802747433131
28.2,0.10621548348688076,0.08549299452619508,0.12683980213469137
28.3,0.10187109710305303,0.08021296487962504,0.12327669738078642
28.4,0.09737546599300223,0.07474575451548206,0.11963118096007169
28.5,0.0927252860656334,0.06907251942424875,0.11587254514430417
28.6,0.08791719141720683,0.06325081246766542,0.11201305199567446
28.7,0.08294775326191256,0.05718198812956591,0.10808701432352318
28.8,0.07781347884540618,0.05091883834026515,0.10401852793284036
28.9,0.07251081034012269,0.04445331315239176,0.09980407701361281
29,0.06703612372272377,0.037780394133583875,0.09532998743180097
29.1,0.061385727632514986,0.030876377947096842,0.09070257690932917
29.2,0.05555586221142966,0.02379514217872916,0.0859237274796067
29.3,0.04954269792528737,0.01649462791779885,0.08100505310051807
29.4,0.04334233436461982,0.00894129658258,0.07596310620313884
29.5,0.03695079902712034,0.00110573690844043,0.07083780037853755
29.6,0.030364046078857954,-0.0069645730387535715,0.06559872912465747
29.7,0.023577955095990533,-0.015276629202247621,0.06020510023816653
29.8,0.016588329785659994,-0.023832202887944756,0.054664095972436016
29.9,0.009390896685549877,-0.03263418907772575,0.04896077695314963
30,0.0019813038424872365,-0.04163069489210308,0.0430959374750829
30.1,-0.005644880530779772,-0.050738062860646096,0.03705942923925763
30.2,-0.013492169420388833,-0.06009019744014374,0.03084689473714397
30.3,-0.02156515839943357,-0.06982432721874031,0.024459498554845305
30.4,-0.029868527037838433,-0.07998707142393423,0.017899331684203462
