temp,mean,conf_lower,conf_upper
0,2.356035194776722,2.0343227116008067,2.6539403022463417
0.1,2.3578651073284536,2.0378649181401736,2.6545303964858595
0.2,2.3596754010179426,2.041271212153487,2.655107466224611
0.3,2.3614660758451893,2.0446083794842274,2.6555891104559595
0.4,2.3632371318101937,2.047917073494129,2.6558490293806494
0.5,2.3649885689129553,2.0511972941831917,2.6562113822227915
0.6,2.366720387153475,2.054449041551415,2.6565195228795337
0.7,2.368432586531752,2.0576723155988,2.656804539636519
0.8,2.370125167047787,2.0608671163253467,2.6570681507304004
0.9,2.3717981287015792,2.0640334437310535,2.6572102205520816
1,2.373451471493129,2.0671712978159222,2.6573177731331823
1.1,2.375085195422437,2.0702806785799517,2.6573269266779764
1.2,2.376699300489502,2.0733615860231422,2.6573790580084364
1.3,2.378293786694325,2.076414020145494,2.657421310923894
1.4,2.3798686540369056,2.0794379809470076,2.6574536854243496
1.5,2.381423902517244,2.0824334684276815,2.6574761815098022
1.6,2.3829595321353394,2.0854281518453073,2.657488799180253
1.7,2.3844755428911926,2.0884239506175866,2.657491538435701
1.8,2.385971934784804,2.0913905031613678,2.6574843992761474
1.9,2.387448707816173,2.094327809476651,2.657467381701591
2,2.3889058619852985,2.09703954426537,2.657440485712032
2.1,2.390343397292183,2.0997833134729955,2.6577080092750123
2.2,2.391761313736824,2.1025648145364313,2.6580423510214617
2.3,2.3931596113192235,2.105317976298352,2.6583642126106586
2.4,2.39453829003938,2.108047205681233,2.658673594042604
2.5,2.395897349897295,2.1105725204367287,2.6587401571631837
2.6,2.3972367908929666,2.1130287753842207,2.658771697942875
2.7,2.398556613026396,2.1158193150416635,2.658792271274972
2.8,2.399856816297584,2.1183629375072783,2.6588992146621866
2.9,2.4011374007065287,2.1208517266825666,2.659033486751441
3,2.402398366253231,2.1233150335641513,2.659268820491064
3.1,2.403639712937691,2.125767061550427,2.659535318448099
3.2,2.4048614407599094,2.128191758320906,2.659787668057135
3.3,2.4060635497198852,2.1305891238755876,2.6600201777749737
3.4,2.407246039817618,2.1329922230966463,2.6600035447666857
3.5,2.4084089110531086,2.1355303602683566,2.659763560560933
3.6,2.409552163426357,2.1379998508552753,2.659650478768188
3.7,2.4106757969373627,2.140400159041672,2.6597809725992714
3.8,2.4117798115861264,2.1425085393078613,2.6596769292598514
3.9,2.412864207372648,2.144648372067725,2.659712977701875
4,2.413928984296927,2.1469505598413177,2.659733756055795
4.1,2.4149741423589632,2.149229857918728,2.6597965251687183
4.2,2.415999681558757,2.1514878610617654,2.659843809770185
4.3,2.4170056018963093,2.1534307279804126,2.660092180749788
4.4,2.417991903371618,2.155448691716354,2.660331690996002
4.5,2.4189585859846856,2.1576229255428134,2.6603648988822726
4.6,2.4199056497355103,2.159855997036768,2.660385090195966
4.7,2.4208330946240926,2.161877555764601,2.660392264937081
4.8,2.421740920650432,2.163948534941179,2.6603864231056185
4.9,2.42262912781453,2.165990928009226,2.6603675647015783
5,2.423497716116385,2.168009649128069,2.6603227978597643
5.1,2.427157541219848,2.1749954371333824,2.6613110242286853
5.2,2.4307781285988255,2.1818683493010407,2.6621464927083855
5.3,2.434359478253319,2.188031342485847,2.662780506348329
5.4,2.437901590183327,2.1945956930517996,2.663381053130636
5.5,2.4414044643888513,2.2011670326338253,2.6639572415011896
5.6,2.44486810086989,2.2069892670481757,2.6649122458477854
5.7,2.4482924996264437,2.213000312753953,2.66563141590969
5.8,2.451677660658514,2.2193635620622283,2.666375081940232
5.9,2.4550235839660983,2.2252104319009676,2.6671605059000045
6,2.458330269549198,2.231126240577256,2.668026328889738
6.1,2.4615977174078134,2.2373649529514186,2.6687844627795334
6.2,2.4648259275419444,2.243174504428456,2.6695066254366413
6.3,2.4680148999515903,2.248931154641753,2.670220223442053
6.4,2.471164634636751,2.2551699268779815,2.6710447041029024
6.5,2.4742751315974276,2.261158361678471,2.671914113813206
6.6,2.477346390833619,2.2667748306185636,2.672700948232121
6.7,2.480378412345326,2.2727401024046276,2.673508459641347
6.8,2.483371196132548,2.2789359772839344,2.673965444791116
6.9,2.4863247421952854,2.2847383232299228,2.6744031650228948
7,2.4892390505335378,2.2904737124208374,2.6751251189071628
7.1,2.492114121147306,2.2958833591791645,2.675819421000389
7.2,2.4949499540365885,2.301338207891935,2.6764696785238646
7.3,2.4977465492013873,2.3067672078686545,2.6771259227826922
7.4,2.5005039066417005,2.312380906828426,2.677868807857462
7.5,2.5032220263575296,2.3172445533982025,2.678759992618406
7.6,2.505900908348874,2.322414940802327,2.6796090082725668
7.7,2.5085405526157327,2.327239498783082,2.680564078381451
7.8,2.5111409591581078,2.3320269061346774,2.6811630370170163
7.9,2.5137021279759972,2.336790043360456,2.6818221475874777
8,2.516224059069403,2.3414970866128444,2.68255631794104
8.1,2.518706752438323,2.346417490166517,2.6831951189772862
8.2,2.5211502080827586,2.350692448963132,2.6838436128720433
8.3,2.52355442600271,2.35505028419006,2.684275906890039
8.4,2.5259194061981765,2.359349137266978,2.684637538338972
8.5,2.528245148669158,2.363600926022934,2.6850890243812144
8.6,2.5305316534156543,2.367683410259941,2.685560389036013
8.7,2.532778920437666,2.3718464966800887,2.6859317056727416
8.8,2.5349869497351936,2.376092494146584,2.686242340784496
8.9,2.5371557413082364,2.3808032796701686,2.68683091743439
9,2.5392852951567937,2.3855115183228772,2.6875546987839796
9.1,2.5413756112808668,2.389934108744385,2.6879105842700697
9.2,2.5434266896804547,2.3938620240049833,2.688189597695138
9.3,2.5454385303555584,2.3980899812644236,2.688432571098717
9.4,2.547411133306177,2.4018654774135424,2.688644376616922
9.5,2.549344498532311,2.405614299821682,2.6888366967772255
9.6,2.5512386260339603,2.4095041354613005,2.6891421200410437
9.7,2.553093515811125,2.4134386296357357,2.6893590684067887
9.8,2.554909167863805,2.4170309525031,2.6898926699010763
9.9,2.556685582192,2.42056681999625,2.690183288664916
10,2.5584227587957105,2.424141714195938,2.6904568350798277
10.1,2.560120697674936,2.42787878026912,2.6907602712738123
10.2,2.561779398829677,2.4313273046665804,2.6911079583682915
10.3,2.563398862259933,2.4344401219308107,2.691082826243064
10.4,2.564979087965704,2.4376212872126937,2.6910260352670736
10.5,2.5665200759469906,2.4406012653949016,2.6910650109336594
10.6,2.5680218262037933,2.444042297964809,2.691033486238739
10.7,2.56948433873611,2.4469398701757648,2.691294456186583
10.8,2.570907613543943,2.449655746224214,2.691242280867381
10.9,2.5722916506272897,2.4523506210530464,2.691056255685807
11,2.573636449986153,2.4550850183256325,2.691012992395757
11.1,2.5749420116205313,2.4580840590101154,2.690679575629169
11.2,2.576208335530424,2.461111649852075,2.6903750586373114
11.3,2.5774354217158333,2.4638112130116774,2.690127100665415
11.4,2.578623270176757,2.466205316817039,2.6899119704260874
11.5,2.5797718809131966,2.4687545226737653,2.6896416042576723
11.6,2.580881253925151,2.4713519844017178,2.6893003890783023
11.7,2.5819513892126205,2.4737636327741703,2.688858397373782
11.8,2.5829822867756054,2.476104290231997,2.688334307547877
11.9,2.5839739466141056,2.4786150119205272,2.687771521942148
12,2.584926368728121,2.480760256894421,2.687374159088472
12.1,2.585839553117652,2.483018093833222,2.6873988131747524
12.2,2.5867134997826975,2.4852343818832274,2.687389778226583
12.3,2.587548208723259,2.487257016146515,2.687584149753185
12.4,2.5883436799393356,2.4895498668737894,2.687369845468658
12.5,2.5890999134309274,2.4912624258333262,2.6868192939992888
12.6,2.5898169091980345,2.4930987049923274,2.686304094398693
12.7,2.590494667240656,2.494731749189876,2.6857655302878554
12.8,2.5911331875587944,2.496554365018288,2.685230022516057
12.9,2.591732470152447,2.498355694729991,2.684654706905513
13,2.592292515021615,2.4999429336966363,2.684222723247782
13.1,2.5928133221662986,2.501291237837571,2.6841009105652756
13.2,2.5932948915864973,2.502647716892179,2.6839493671610493
13.3,2.5937372232822113,2.5041938661893175,2.683581619827226
13.4,2.59414031725344,2.505743407404828,2.6830668325309057
13.5,2.5945041735001846,2.507412802006505,2.6823001977967165
13.6,2.5948287920224438,2.509027107978218,2.681501118226598
13.7,2.5951141728202187,2.5106953565194856,2.6809405075376214
13.8,2.595360315893509,2.5119942279645344,2.6800431172718078
13.9,2.595567221242314,2.512896219928704,2.679432076086843
14,2.5957348888666347,2.514306279008009,2.6785780765648215
14.1,2.595863318766471,2.515660968286472,2.6779084939690065
14.2,2.5959525109418222,2.516970592779959,2.6771223241078896
14.3,2.5960024653926883,2.51778128589679,2.6765109924300576
14.4,2.59601318211907,2.5187748975603768,2.6758645518239854
14.5,2.5959846611209674,2.519689457110891,2.674973589624466
14.6,2.5959169023983795,2.520702217834864,2.6740368656029117
14.7,2.595809905951307,2.5215228892256496,2.673068329563466
14.8,2.595663671779749,2.52237979800638,2.6720797045532843
14.9,2.5954781998837078,2.5231949376197815,2.6711504404056736
15,2.5952534902631808,2.523984284634481,2.670009476098137
15.1,2.594989542918169,2.524749012536626,2.668943299508441
15.2,2.5946863578486727,2.5254170956760933,2.667828544750486
15.3,2.5943439350546917,2.5255853135637563,2.6664292059488934
15.4,2.593962274536226,2.5262659286369313,2.6650254766024686
15.5,2.5935413762932757,2.5269607774449505,2.6635594569468397
15.6,2.5930812403258408,2.526995677720349,2.6623067186176392
15.7,2.59258186663392,2.527271510942194,2.6609920044315354
15.8,2.592043255217516,2.527916113576238,2.6597075980152214
15.9,2.5914654060766265,2.52806039587573,2.6584463182475186
16,2.5908483192112524,2.5282172261339007,2.657153382392771
16.1,2.590191994621393,2.5285653993966024,2.655532108984115
16.2,2.5894964323070497,2.5284000283914256,2.6540827926764923
16.3,2.588761632268221,2.5281124608003998,2.652684417133747
16.4,2.587987594504908,2.528531097270741,2.6513781326486847
16.5,2.5871743190171097,2.528497095309355,2.6500979856153233
16.6,2.586321805804827,2.527979281460289,2.64871647169282
16.7,2.58543005486806,2.5280054408921444,2.647336843162874
16.8,2.584499066206808,2.5283127760292423,2.6455323835519797
16.9,2.5835288398210707,2.528224005578858,2.6436645295040706
17,2.582519375710849,2.5280311839048704,2.642051324731715
17.1,2.581470673876143,2.5276364989387314,2.64035538444268
17.2,2.5803827343169523,2.527242583979785,2.6384313771361207
17.3,2.5792555570332762,2.526832064765836,2.6368121639565203
17.4,2.5780891420251155,2.526612400971891,2.6351151157895876
17.5,2.57688348929247,2.5256539336981776,2.633374057691321
17.6,2.57563859883534,2.52501464309917,2.631577851851511
17.7,2.5743544706537254,2.524042905058785,2.6298747218316674
17.8,2.5730311047476255,2.523033592833006,2.627802501703745
17.9,2.571668501117041,2.522007318037427,2.6257774548759603
18,2.5702666597619723,2.5209419239738966,2.6238144891965187
18.1,2.568825580682419,2.5201068649170884,2.621743175565002
18.2,2.56734526387838,2.5189435306403176,2.619726187998468
18.3,2.5658257093498564,2.5179088316576754,2.61756722757029
18.4,2.564266917096849,2.516829477310086,2.6153655296931984
18.5,2.562668887119356,2.515717385426596,2.6131098600309226
18.6,2.5610316194173786,2.514328419114114,2.6107279896349787
18.7,2.5593551139909163,2.51288066883295,2.608254498771073
18.8,2.5576393708399694,2.511550059026712,2.6058684048233087
18.9,2.555884389964538,2.51068075462505,2.603759083130477
19,2.5540901713646216,2.509771994041821,2.6017700614114285
19.1,2.5522567150402202,2.508539610156207,2.5994102845573366
19.2,2.550384020991334,2.5068541993468334,2.5969393318582905
19.3,2.5484720892179635,2.5054866357399073,2.594431983581657
19.4,2.546520919720108,2.503683568427623,2.5918785871776704
19.5,2.5445305124977677,2.501780737591921,2.5892908251738014
19.6,2.5425008675509426,2.499999803020652,2.5868012860314664
19.7,2.5404319848796337,2.4984577466652436,2.5842091748121825
19.8,2.5383238644838393,2.4966588982198323,2.5820507545644835
19.9,2.5361765063635597,2.494551777532248,2.5793730065705027
20,2.533989910518796,2.4924602226899455,2.576789618165218
20.1,2.5317640769495475,2.4907075725273335,2.574245264226483
20.2,2.5294990056558144,2.4888180854457165,2.571770106253337
20.3,2.5271946966375958,2.4864751289326352,2.5688838073741547
20.4,2.524851149894893,2.4845031360673735,2.566290100065446
20.5,2.522468365427705,2.4821947480113895,2.5635466640969997
20.6,2.520046343236033,2.4803347646646614,2.560754768102248
20.7,2.5175850833198763,2.477935479218912,2.5583922729266293
20.8,2.5150845856792343,2.4753598607403053,2.555537128970109
20.9,2.5125448503141072,2.472620919089012,2.5528213820617864
21,2.5099658772244964,2.4700301904169653,2.5500875097922515
21.1,2.5073476664104004,2.4676697904196754,2.5472694947508425
21.2,2.5046902178718193,2.4654753677988976,2.544249101699494
21.3,2.501993531608754,2.46288587764054,2.541346497257721
21.4,2.4992576076212036,2.460270351155894,2.5386801155486367
21.5,2.496482445909169,2.4576729706527205,2.536157858416117
21.6,2.4936680464726493,2.4549996276265373,2.533231559862544
21.7,2.4908144093116444,2.4520259569702194,2.5304952158600464
21.8,2.487921534426155,2.4489803017833918,2.527607155105447
21.9,2.4849894218161817,2.4461626931761167,2.5245740410666353
22,2.482018071481723,2.4430215539174025,2.521699257011936
22.1,2.4790074834227793,2.440111066034418,2.5189648713202084
22.2,2.475957657639351,2.437114685190971,2.5159291754209705
22.3,2.472868594131438,2.433918858897882,2.5133119712644234
22.4,2.4697402928990404,2.4308949506539044,2.5103608190129556
22.5,2.466572753942158,2.427488015553816,2.5073109940549863
22.6,2.463365977260791,2.4243948301749993,2.5042345716623116
22.7,2.4601199628549386,2.420639514808956,2.5011220449660607
22.8,2.4568347107246025,2.4173819585081144,2.497899751737415
22.9,2.4535102208697808,2.414072923504313,2.4945889280454425
23,2.4501464932904744,2.410558230104169,2.491398911236177
23.1,2.4467435279866834,2.4069230610188708,2.4883096985971642
23.2,2.4433013249584086,2.403066477682032,2.485236236378638
23.3,2.4398198842056478,2.399273657978421,2.4819353058970943
23.4,2.436299205728403,2.3951307333874743,2.4787149711443934
23.5,2.4327392895266726,2.3912783099407475,2.4754639464105423
23.6,2.4291401356004583,2.3874825226114504,2.4720401441499873
23.7,2.4255017439497593,2.3838600394651204,2.4686013217799063
23.8,2.4218241145745747,2.380339859142465,2.4650392166549953
23.9,2.4181072474749064,2.376378755550599,2.46157519316005
24,2.4143511426507525,2.372752270978403,2.4579046862227045
24.1,2.410555800102114,2.368749357633765,2.454677449313479
24.2,2.4067212198289916,2.3646728969489894,2.4509308354915795
24.3,2.4028474018313832,2.3602985712549236,2.4469203966230997
24.4,2.3989343461092907,2.3562666691313403,2.4431629873724523
24.5,2.394982052662714,2.351958986258069,2.439709632584636
24.6,2.3909905214916516,2.3473735136247,2.435966240932597
24.7,2.3869597525961055,2.3426876050185568,2.4324015363620726
24.8,2.3828897459760734,2.338399487022661,2.4286030873689715
24.9,2.378780501631557,2.333501580665474,2.4250464107621625
25,2.374632019562556,2.329092677587951,2.4212854367739727
25.1,2.3704442997690705,2.324296788339279,2.4177484651691143
25.2,2.3662173422511,2.3197982980175125,2.4140391530252523
25.3,2.3619511470086447,2.315026675728198,2.410076182317662
25.4,2.357645714041705,2.310231596080052,2.406312812385957
25.5,2.35330104335028,2.3052041548250317,2.402499472976812
25.6,2.3489171349343705,2.3005868933182603,2.398704794344515
25.7,2.344493988793977,2.295734356545635,2.394893914955878
25.8,2.3400316049290977,2.290609502975878,2.3911301498318407
25.9,2.3355299833397343,2.2856409949813794,2.387752185355789
26,2.3309891240258853,2.280594466365475,2.383954239861315
26.1,2.3264090269875526,2.27549470753193,2.379903936457797
26.2,2.3217896922247347,2.2703911360521016,2.3760045959246536
26.3,2.317131119737432,2.2651976929191053,2.3718165599464793
26.4,2.3124333095256446,2.2599514861701646,2.3676366575508956
26.5,2.3076962615893724,2.2547730708386142,2.363767303054469
26.6,2.3029199759286154,2.2494387631650126,2.359681388658986
26.7,2.2981044525433743,2.244098654261197,2.355241167826633
26.8,2.2932496914336475,2.238644112763584,2.3509265155055923
26.9,2.2883556925994366,2.2331324473112524,2.346706457114435
27,2.283422456040741,2.227384061635338,2.3424125819255233
27.1,2.27844998175756,2.221880657351015,2.3381263288248433
27.2,2.273438269749895,2.2161933567167447,2.3335572594803082
27.3,2.2683873200177453,2.2104968131079863,2.329274881858619
27.4,2.26329713256111,2.204389871630092,2.324800232554503
27.5,2.2581677073799904,2.19817531125386,2.3199739063761142
27.6,2.2529990444743864,2.19203663028496,2.315269159623611
27.7,2.2477911438442977,2.185949307199563,2.310735931510764
27.8,2.242544005489724,2.179741977271665,2.3062161689380787
27.9,2.237257629410665,2.1735278850777844,2.3016536367700366
28,2.231932015607122,2.167436856562813,2.29700769103233
28.1,2.226567164079094,2.1615456408708953,2.2922261265672637
28.2,2.221163074826581,2.1550929707213435,2.28770233310365
28.3,2.2157197478495836,2.1485989132999412,2.2830768654634146
28.4,2.2102371831481014,2.1421201425665424,2.278393948309824
28.5,2.2047153807221345,2.1360123000173754,2.2736850760141443
28.6,2.199154340571683,2.129414441344589,2.2686959097310493
28.7,2.1935540626967462,2.1227709324018007,2.2635814174504025
28.8,2.1879145470973254,2.1164933423060237,2.2586210184001656
28.9,2.1822357937734194,2.11024373617084,2.2539684563077067
29,2.1765178027250287,2.1037152659646354,2.2491684725309384
29.1,2.1707605739521534,2.0968803312507607,2.2443947703190616
29.2,2.164964107454793,2.0904478954386794,2.2393225919619564
29.3,2.1591284032329483,2.083981503626545,2.2340967866818247
29.4,2.153253461286619,2.0774769858477287,2.2287149762475686
29.5,2.147339281615804,2.0708442949148274,2.2236922383770343
29.6,2.141385864220505,2.064041897861809,2.2184155196773654
29.7,2.1353932091007213,2.0571821719483436,2.213096940323238
29.8,2.129361316256453,2.0501798777002893,2.2079459985042553
29.9,2.1232901856876993,2.042683810089777,2.2026711426518837
30,2.1171798173944616,2.0351883807009585,2.197483618000901
30.1,2.1110302113767383,2.0278968853183974,2.1922811373011584
30.2,2.1048413676345312,2.02094473856395,2.1870759881702777
30.3,2.098613286167839,2.0137793778095108,2.1813130219551904
30.4,2.0923459669766618,2.0068763977684627,2.176114684237589
30.5,2.086039410061,1.9997848326592211,2.170497752478865
30.6,2.079693615420853,1.9924090004113504,2.1648218246361943
30.7,2.073308583056222,1.984803473994977,2.1595673758680416
30.8,2.0668843129671064,1.9771451791149572,2.1539899157482507
30.9,2.0604208051535053,1.969286430688571,2.148696710290133
31,2.0539180596154196,1.9614782412043814,2.143198044482374
31.1,2.0473760763528492,1.953753369999478,2.137792449953187
31.2,2.0407948553657946,1.946289390851778,2.132186454068557
31.3,2.034174396654255,1.9384374907482764,2.126398741357922
31.4,2.0275147002182305,1.9309730135942775,2.121125270356575
31.5,2.020815766057721,1.9233163845494587,2.11602968674634
31.6,2.0140775941727274,1.9154078433333401,2.1102886352074837
31.7,2.0073001845632485,1.9071324303893242,2.1047973871566104
31.8,2.000483537229285,1.8987963193281638,2.0992150336361766
31.9,1.993627652170837,1.8904584861145928,2.093504835772513
32,1.9867325293879041,1.8819065691648897,2.087766058302065
32.1,1.9797981688804862,1.8735653688357856,2.0820284733833305
32.2,1.9728245706485839,1.8655469868912131,2.0760784770511647
32.3,1.9658117346921968,1.8574837036334473,2.070319477405826
32.4,1.958759661011325,1.8488672487024185,2.0646111168956027
32.5,1.9516683496059684,1.8405251534625118,2.058885904128515
32.6,1.944537800476127,1.8324679829528294,2.0531767872181295
32.7,1.9373680136218008,1.8242741285539958,2.047608793321266
32.8,1.93015898904299,1.8161168090668482,2.0420050940159093
32.9,1.9229107267396945,1.8074578572276738,2.036370748195833
33,1.915623226711914,1.7986650716253307,2.0308056863638413
33.1,1.9082964889596488,1.7899502665281162,2.0247890428536417
