temp,mean,conf_lower,conf_upper
0,-3.2228037642052055e-4,-0.001385438200400196,6.243211253549281e-4
0.1,-3.0098566501594106e-4,-0.0013744352291250638,6.54820348349296e-4
0.2,-2.786877080422936e-4,-0.0013620364863677669,6.859711096976318e-4
0.3,-2.553915844992766e-4,-0.0013481624801601462,7.177701254523494e-4
0.4,-2.311023895438664e-4,-0.001332833074010471,7.50216448900217e-4
0.5,-2.0582523461738463e-4,-0.001316127298932796,7.833517348201594e-4
0.6,-1.7956524757406012e-4,-0.0013009785672254668,8.171265476976886e-4
0.7,-1.5232757281110918e-4,-0.0012845931691595638,8.515375287537854e-4
0.8,-1.2411737140035896e-4,-0.0012670824506337095,8.865813090204951e-4
0.9,-9.493982122143404e-5,-0.0012483120118171216,9.222545092658885e-4
1,-6.480011709653599e-5,-0.0012267393485931382,9.585537399181992e-4
1.1,-3.370347092683478e-5,-0.0012025083498934251,9.9547560098913e-4
1.2,-1.6551118305022562e-6,-0.0011767188214479116,0.0010330166819963154
1.3,3.1339713717588135e-5,-0.0011495962973756843,0.0010711735618849233
1.4,6.52757417444725e-5,-0.0011202371299586032,0.0011099428089483925
1.5,1.0014769063598445e-4,-0.0010885695530422268,0.0011493209807482841
1.6,1.3595026099190132e-4,-0.001059453345753192,0.0011893046240332424
1.7,1.7267813547931353e-4,-0.0010286120802834506,0.0012298902746570443
1.8,2.1032597868419153e-4,-9.953387184023688e-4,0.0012710744574957308
1.9,2.488884369611244e-4,-9.631830900701169e-4,0.0013128536863638012
2,2.883601382811939e-4,-9.306097732062695e-4,0.0013552244639294653
2.1,3.2873569207796127e-4,-8.968610370930115e-4,0.0013981832816289265
2.2,3.700096890915307e-4,-8.619437903287308e-4,0.0014398463436866241
2.3,4.1217670121065903e-4,-8.258344806466288e-4,0.001480448340140818
2.4,4.552312813128853e-4,-7.884228432635215e-4,0.0015214832101649721
2.5,4.991679631026368e-4,-7.498600608576868e-4,0.001562992402595216
2.6,5.439812609472915e-4,-7.101532000110135e-4,0.001605007228187202
2.7,5.896656697111519e-4,-6.683150510108882e-4,0.0016478874974726135
2.8,6.36215664587301e-4,-6.25824183250976e-4,0.0016943667325641603
2.9,6.836257009273065e-4,-5.828745129141501e-4,0.0017414144146629335
3,7.318902140687322e-4,-5.36112650040331e-4,0.0017890275582717232
3.1,7.109650690764939e-4,-6.202559363131341e-4,0.0018269119687213022
3.2,6.93361265598696e-4,-7.046142272650987e-4,0.0018669289333129034
3.3,6.790643664836396e-4,-7.844638081601312e-4,0.0019091718745057342
3.4,6.680598912440977e-4,-8.598243506020792e-4,0.0019536615470367408
3.5,6.603333157248174e-4,-9.307155878577524e-4,0.002000262856037288
3.6,6.558700717661138e-4,-9.971573153552786e-4,0.002048967414192426
3.7,6.546555468635043e-4,-0.0010591693911886223,0.0020997503106028425
3.8,6.566750838233191e-4,-0.001116771736628374,0.002152456551027825
3.9,6.619139804142198e-4,-0.0011699843366389242,0.002207212593265758
4,6.70357489014576e-4,-0.001218827240402107,0.002264029762975569
4.1,6.819908162556111e-4,-0.0012633205618474423,0.002322899671829262
4.2,6.967991226602737e-4,-0.0013034844801890733,0.002383813910044762
4.3,7.147675222777478e-4,-0.0013393392404695203,0.002446764046249789
4.4,7.35881082313544e-4,-0.001372174066849989,0.002511741627344435
4.5,7.60124822755096e-4,-0.0014016745809663825,0.0025787381783624404
4.6,7.874837159927913e-4,-0.001427480087345017,0.002647740034498449
4.7,8.179426864363565e-4,-0.0014492012946640297,0.00271888346060209
4.8,8.514866101265302e-4,-0.0014668570799749566,0.002791651778312506
4.9,8.881003143419386e-4,-0.0014804663808184032,0.0028663163317288716
5,9.277685772011044e-4,-0.0014891567087610103,0.00294290586198562
5.1,9.704761272594996e-4,-0.0014911425892501114,0.0030214122199247054
5.2,0.0010162076431015621,-0.0014820260775747465,0.003101827235134377
5.3,0.0010649477529275995,-0.001471669217029587,0.003186556418740584
5.4,0.0011166810341354811,-0.0014630817670174445,0.0032733886724980663
5.5,0.0011713920128970546,-0.0014488154346551372,0.0033620184689962893
5.6,0.001229065163729165,-0.0014294685917920578,0.003453496740406082
5.7,0.0012896849090592206,-0.0014008662150531458,0.0035437316994132717
5.8,0.0013532356187851838,-0.001369286644255021,0.0036315470699017703
5.9,0.00141970160982991,-0.0013396807310379268,0.0037212231525773415
6,0.0014890671456897356,-0.0013064960895854485,0.0038178217723189283
6.1,0.0015613164359772089,-0.001270204197766346,0.0039162319079430186
6.2,0.0016364336359578702,-0.001229504071947516,0.00401685526987235
6.3,0.0017144028460809757,-0.0011840056104972854,0.0041249141100659055
6.4,0.0017952081115040577,-0.001138282894051268,0.004232655039855957
6.5,0.001878833421611218,-0.001089782049404807,0.004336527853289228
6.6,0.001965262709525052,-0.0010348030423035393,0.004446283066990612
6.7,0.0020544798516120644,-9.736089658919925e-4,0.00455288624038063
6.8,0.002146468666981493,-9.084572377733271e-4,0.004662632199865283
6.9,0.002241212916977407,-8.39687512632748e-4,0.004771970842703554
7,0.0023386963046639663,-7.693557882982848e-4,0.004882956202340719
7.1,0.0024389024743037115,-6.953222843994262e-4,0.00499316267086128
7.2,0.002541815010828771,-6.176088530631153e-4,0.005103732154623845
7.3,0.002647417439304846,-5.348742030755275e-4,0.005216397155340749
7.4,0.002755693224387849,-4.4786785505905504e-4,0.005333823145556176
7.5,0.0028666257697730685,-3.570271522482322e-4,0.0054578209767472425
7.6,0.0029801984176367068,-2.630442806294741e-4,0.005583342996067638
7.7,0.0030963944480696627,-1.6696492912313064e-4,0.0057061868521933
7.8,0.0032151970785034172,-6.818284642586975e-5,0.005840428453867165
7.9,0.003336589463127867,3.1132767589179405e-5,0.005975552476045839
8,0.003460554692300971,1.3576749400614463e-4,0.006115863948365911
8.1,0.0035870757919500384,2.465406811059106e-4,0.006260237231625795
8.2,0.003716135722964516,3.6094138340569265e-4,0.006400767836015472
8.3,0.0038477173805801053,4.790435825617224e-4,0.006546842540036176
8.4,0.003981803593754049,6.006688764564876e-4,0.006691668038035804
8.5,0.004118377124531439,7.255559300248324e-4,0.0068331590429071215
8.6,0.004257420667402319,8.491313515755107e-4,0.006983491327163257
8.7,0.004398916848649473,9.807241073369949e-4,0.0071391411077427825
8.8,0.004542848225686672,0.00111531983306315,0.007295901695076692
8.9,0.004689197286387213,0.0012531096243025366,0.00745168894931588
9,0.004837946448402567,0.0013971685886044287,0.007605369725746521
9.1,0.004989078058470923,0.0015378088459362478,0.007758914453192516
9.2,0.00514257439171545,0.0016836280790771853,0.007908820413542546
9.3,0.00529841765093206,0.0018401119061989823,0.008072183138052772
9.4,0.00545658996586647,0.0020000900114372313,0.008239348717980245
9.5,0.0056170733924803574,0.0021653847718801785,0.008408293122711205
9.6,0.005779849912206375,0.0023239579762729177,0.008578793318840722
9.7,0.005944901431191805,0.0024869020817704667,0.008750834505506103
9.8,0.006112209779530644,0.002656396868569137,0.008922360377828498
9.9,0.006281756710483841,0.0028214202900811256,0.00909000881578782
10,0.006453523899687501,0.0029881247299786127,0.009258801115947976
10.1,0.006627492944348763,0.0031616637133589014,0.009438937473328366
10.2,0.006803645362429119,0.0033380303919088084,0.00961265961517539
10.3,0.006981962591814912,0.0035169037706740524,0.00978245560315909
10.4,0.007162425989474728,0.00368752699577326,0.009953175962377851
10.5,0.007345016830603465,0.003868711869140408,0.010124686477574746
10.6,0.0075297163077527145,0.004053490461547007,0.010299391888270506
10.7,0.007716505529947244,0.00424260228684233,0.010478339518318593
10.8,0.007905365521787222,0.004434003053537291,0.010667538569772933
10.9,0.008096277222535947,0.004626658810237673,0.010862637156582724
11,0.008289221485192707,0.004827503167414648,0.011053612908622223
11.1,0.0084841790755505,0.005035030931045822,0.011245960161833608
11.2,0.00868113067123823,0.005235898112057815,0.011442566157870353
11.3,0.008880056860747141,0.0054394467522808345,0.011640649291566356
11.4,0.009080938142440985,0.005644479772511912,0.011834743059759668
11.5,0.009283754923549768,0.005854194316039774,0.012030558427269454
11.6,0.009488487519146513,0.006065286464688855,0.012233449900062239
11.7,0.009695116151106792,0.006278678301580683,0.012437604749240657
11.8,0.009903620947050638,0.006493876724520072,0.012643099343650143
11.9,0.010113981939266312,0.006706139117203866,0.012846368183577954
12,0.010326179063615729,0.0069279513575729,0.013049224606096645
12.1,0.010540192158420916,0.007135307652448,0.013253037957257921
12.2,0.010756000963331189,0.007355575998254843,0.013458036594998184
12.3,0.010973585118170618,0.007571804569762147,0.013666218416256305
12.4,0.011192924161765214,0.0077850846798471745,0.013873576292965756
12.5,0.011413997530749516,0.008001027214176986,0.014084752520442247
12.6,0.011636784558351961,0.00821920176343768,0.01429991456720337
12.7,0.011861264473158644,0.008439473139346926,0.014511522720672838
12.8,0.01208741639785489,0.008666073312611091,0.014727820550328403
12.9,0.012315219347944138,0.008901366903697111,0.014945209147173661
13,0.012544652230443626,0.00913941436854222,0.015163671519780575
13.1,0.012775693842556241,0.009381558897476647,0.01538319057632609
13.2,0.013008322870318046,0.009633204165110288,0.015603642688389747
13.3,0.013242517887220867,0.009890759112763351,0.01583326943166827
13.4,0.013478257352809246,0.010128705546107017,0.01606554767866777
13.5,0.013715519611251331,0.010363585464734412,0.016299531641121988
13.6,0.01395428288988281,0.010602285611139965,0.016534433305750256
13.7,0.014194525297723427,0.010857498870248401,0.01676416688511097
13.8,0.014436224823965298,0.011118753560022142,0.016986261451352812
13.9,0.014679359336432296,0.011367449236210091,0.017209118703530805
14,0.014923906580009891,0.011617808470885164,0.017442860800223413
14.1,0.015169844175044531,0.011865341419349818,0.017671517196098194
14.2,0.015417149615711933,0.012109707103690215,0.01790087854230288
14.3,0.015665800268353413,0.012351476647307466,0.018143956495809258
14.4,0.015915773369779396,0.012594950141229102,0.018391934601673213
14.5,0.016167046025539377,0.012829093492303765,0.018629864691917627
14.6,0.016419595208157275,0.01307046456332092,0.018874751458031434
14.7,0.01667339775533145,0.013323178025213869,0.019109368472425496
14.8,0.0169284303680983,0.013589806891575133,0.01935199610986578
14.9,0.017184669608958553,0.013850094632507767,0.019595546583571242
15,0.017442091899965272,0.014117079035613723,0.019833493403763978
15.1,0.01770067352077238,0.014365607406882669,0.020069722188896962
15.2,0.01796039060664286,0.014629419629262846,0.02030284485697816
15.3,0.01822121914641537,0.01489789272872751,0.020536159837740313
15.4,0.01848313498042814,0.01516922838902304,0.020778737125354652
15.5,0.018746113798399057,0.015437772201403525,0.02103072699042343
15.6,0.019010131137260616,0.015706651924642472,0.021283105575801913
15.7,0.0192751623789485,0.015974422421404323,0.021527452219012807
15.8,0.01954118274814255,0.016242058535622817,0.021791955991849733
15.9,0.019808167309958626,0.016512648169089046,0.0220493537650526
16,0.02007609096759014,0.016775325778776575,0.02231477771143264
16.1,0.020344928459897577,0.017050690765115138,0.02258432804617625
16.2,0.02061465435894473,0.017314905833785078,0.022842982979229265
16.3,0.020885243067479985,0.01759849476164597,0.023109646536158827
16.4,0.02115666881636091,0.017880504073771772,0.023370937173602647
16.5,0.02142890566192079,0.01814908096826917,0.023622880804316078
16.6,0.021701927483275048,0.018420315652116003,0.02388972624489995
16.7,0.0219757079795659,0.01870716565148742,0.024164333491301735
16.8,0.022250220667143442,0.01900291216965719,0.024442423590997513
16.9,0.022525438876681018,0.019299728829920534,0.02471605704895292
17,0.022801335750223115,0.019594719739785695,0.02497887218538306
17.1,0.02307788423816349,0.019864359139775235,0.025240938256692824
17.2,0.023355057096151464,0.02014191667044899,0.02549056775131739
17.3,0.023632826881924095,0.02043355504641416,0.025760985065164742
17.4,0.02391116595206191,0.020722259965033078,0.026036011567556045
17.5,0.02419004645866576,0.021018828941749054,0.026320120857768494
17.6,0.024469440345952245,0.021311255217698628,0.026603065618544555
17.7,0.024749319346765126,0.021602090580227034,0.026887286711361903
17.8,0.025029654978999956,0.021892736688230798,0.027165494568555507
17.9,0.025310418541939078,0.02218949902777842,0.027430884814146773
18,0.025591581112494106,0.022476927985412194,0.027696207446562173
18.1,0.025873113541352702,0.02277676257337109,0.027980575992320934
18.2,0.026154986449026505,0.02307578369535404,0.02826524196689117
18.3,0.026437170221796924,0.023375021757736696,0.02854012206025335
18.4,0.02671963500755511,0.02365261811926844,0.02881071025438178
18.5,0.027002350711532844,0.02394679814648392,0.029086687325184938
18.6,0.02728528699192011,0.024243651266680284,0.0293633488185113
18.7,0.02756841325536584,0.02454070467549271,0.029643741895387852
18.8,0.02785169865235736,0.024839781061551415,0.02993116270745486
18.9,0.028135112072474554,0.025144533813546904,0.0302315308463162
19,0.028418622139514012,0.02545183029102081,0.030512445918393572
19.1,0.028702197206478645,0.02575885618703023,0.030792466838994743
19.2,0.028985805350427798,0.026061163064402395,0.031079812777357992
19.3,0.02926941436718285,0.026354960560995788,0.031366165846945196
19.4,0.029552991765882806,0.026648206483872703,0.03164355864225204
19.5,0.029836504763384498,0.026955093786649793,0.031917981677268434
19.6,0.03011992027850136,0.027260409338050007,0.03220538518626146
19.7,0.030403204926074782,0.027565945745666346,0.03249195101791443
19.8,0.030686325010871762,0.0278723863809435,0.032779708186288226
19.9,0.030969246521301782,0.028166192473443628,0.03306068556062258
20,0.031251935122946356,0.02847615849539015,0.033344074527307574
20.1,0.03153435615189357,0.0287530811334571,0.03362139712594108
20.2,0.03181647460786997,0.029051604502368596,0.03388720619259072
20.3,0.032098255147161914,0.02933809930029171,0.034170784942666746
20.4,0.03237966207531754,0.02961980279529441,0.03444998022832707
20.5,0.032660659339620805,0.029904257265287743,0.03472088523455227
20.6,0.03294121052132795,0.030189247463965375,0.034998292113479636
20.7,0.03322127882765677,0.03047452781957356,0.035273623730257164
20.8,0.033500827083518266,0.030768587172454554,0.03555439418028535
20.9,0.033779817722979756,0.0310761797574648,0.03583318034215987
21,0.03405821278044818,0.0313856911575487,0.03611149925527915
21.1,0.03433597388156135,0.03169544756807713,0.036388712885888914
21.2,0.03461306223377467,0.03199139849528451,0.036664336180312694
21.3,0.03488943861662992,0.03229752340737452,0.03693536253118931
21.4,0.035165063371691854,0.03257991635965448,0.037218963415883155
21.5,0.03543989639213815,0.03284725480604649,0.037502890072445484
21.6,0.035713897111986574,0.03312360936975646,0.03778680595962574
21.7,0.03598702449494332,0.033408789795900694,0.03806910301447527
21.8,0.03625923702285466,0.033704129606084224,0.038332463879653535
21.9,0.03653049268374366,0.03398656780685214,0.0386074736130199
22,0.03680074895941243,0.03427671424158203,0.038888266940609886
22.1,0.03706996281258926,0.034558464650610195,0.03915297783464734
22.2,0.03733809067359866,0.03483791376820398,0.039416721042522626
22.3,0.037605088426531465,0.03508830492588729,0.039681004200059725
22.4,0.03787091139489007,0.0353564094113725,0.039950662131180405
22.5,0.03813551432668324,0.03561059188081201,0.04021892990034417
22.6,0.03839885137894239,0.03585012852189571,0.040479727573478785
22.7,0.03866087610163058,0.036090948717576524,0.04073696873928513
22.8,0.038921541420912704,0.036352074874338836,0.041000210087184956
22.9,0.0391807996217538,0.03659804612936462,0.041271026091371246
23,0.039438602329810675,0.03686185270521205,0.04152593572946694
23.1,0.039694900492578816,0.037091645855039816,0.041788285449607956
23.2,0.03994964435975508,0.03734737672541183,0.042043662647887295
23.3,0.040202783462773554,0.03758238408885921,0.04229545927275266
23.4,0.040454266593469033,0.03782105338340436,0.042549997624149495
23.5,0.04070404178181989,0.03803497131156157,0.042797871131930704
23.6,0.04095205627271847,0.03824653574388712,0.04304670717364444
23.7,0.04119825650171371,0.038456943282307456,0.04329708451346956
23.8,0.04144258806966685,0.03866340592998724,0.04354663137215818
23.9,0.04168499571625684,0.03887048489854788,0.04379510208476056
24,0.0419254232922675,0.039056370249937584,0.04404165952788065
24.1,0.04216381373058362,0.039264419486323796,0.04428849572597861
24.2,0.04240010901581797,0.0394452479525378,0.04453325910307637
24.3,0.042634250152485016,0.03965775108710772,0.04477707926772907
24.4,0.04286617713163116,0.03986367725603739,0.04501911819505586
24.5,0.04309582889582444,0.040045526422799245,0.045264606823002235
24.6,0.04332314330239878,0.04022877354725036,0.045514230971856244
24.7,0.04354805708484008,0.04041029927871888,0.04575599422275317
24.8,0.043770505812192384,0.040605555069782855,0.04601187477548184
24.9,0.04399042384635228,0.04079474724814906,0.046274786255485055
25,0.04420774429710954,0.04097328657661838,0.04652571578239893
25.1,0.04442239897477962,0.04111296286487314,0.046789837957882954
25.2,0.04463431834026138,0.0412590936349307,0.04704407070870455
25.3,0.044843431452338586,0.04138576782970554,0.04728279842382871
25.4,0.04504966591202863,0.041513345005970176,0.047531385560468604
25.5,0.045252947803764536,0.0416573774959541,0.04780468840437967
25.6,0.04545320163317731,0.04177737880144857,0.04806665419870235
25.7,0.04565035026122483,0.04188261823614371,0.04834993319775466
25.8,0.04584431483439026,0.04197273301335917,0.04863020020970629
25.9,0.04603501471064719,0.04206271188750304,0.04888369688698276
26,0.046222367380860406,0.042125188610177826,0.049127463041165824
26.1,0.04640628838525931,0.0421867233078308,0.04938547070068051
26.2,0.04658669122458579,0.042237464966434754,0.049656132671314905
26.3,0.04676348726547921,0.04227490823009536,0.04991780446309182
26.4,0.04693658563961677,0.04230598155352513,0.05018890235902878
26.5,0.04710589313607915,0.0423278708762736,0.05044494165297381
26.6,0.04727131408635541,0.04235655909329325,0.05069747934534166
26.7,0.04743275024134,0.042379013256996674,0.05095629670749908
26.8,0.0475901006396048,0.04238939517862966,0.05121638763477253
26.9,0.04774326146615081,0.04239539795085883,0.05147573538439403
27,0.04789212590075565,0.0423937973236621,0.051703417187396225
27.1,0.04803658395493286,0.04238215731749869,0.051927083138283314
27.2,0.04817652229640516,0.04234864742162415,0.05215174207086788
27.3,0.04831182405986498,0.04228467073554987,0.05239307863519804
27.4,0.04844236864264824,0.042210055407750885,0.05264942420522468
27.5,0.04856803148377941,0.04213992566659338,0.05287525743458121
27.6,0.048688683824653356,0.042078204929971316,0.0530885553072735
27.7,0.048804192449399,0.04201074579943183,0.053306878997072045
27.8,0.048914419402715514,0.04191174081473687,0.05355297464353664
27.9,0.049019221682678554,0.041783760438311425,0.05379739829232328
28,0.049118450905674946,0.041667690593082854,0.05403007143554061
28.1,0.049211952940230126,0.04151948223533845,0.05425007302365966
28.2,0.049299567506034245,0.04134964148256227,0.05444155471301454
28.3,0.04938112773393724,0.04115715118111989,0.05466263694098343
28.4,0.04945645968205493,0.04093236496931619,0.054886316938192015
28.5,0.049525381802390536,0.04067984088792875,0.05507680214541666
28.6,0.04958770435150335,0.04039592926968103,0.05526743015349257
28.7,0.049643228737724074,0.040076023660965375,0.055472213295845556
28.8,0.04969174679618684,0.03971415710917462,0.055673052458728584
28.9,0.04973303998147901,0.03943405492810171,0.05586853853096386
29,0.04976687846594817,0.03913696880285516,0.05606283210979868
29.1,0.049793020129579375,0.038828503285433996,0.05625137497275476
29.2,0.0498112094247819,0.0384671457031326,0.05643342851661884
29.3,0.04982117609628795,0.03833563799870631,0.0565987514925397
29.4,0.04982263373252611,0.03858537963031144,0.0567831727480628
29.5,0.049815278120103244,0.038659953874555814,0.056965886073439734
29.6,0.04979878536716847,0.038894252482063296,0.05715417742101443
