temp,mean,conf_lower,conf_upper
0,2.4756263249576556,2.2723424784312956,2.67499295412003
0.1,2.4767832840350508,2.2744517078190123,2.6751422744442257
0.2,2.4779202526619852,2.2765380382975398,2.675278872732819
0.3,2.4790372308384594,2.2785497389312552,2.6754027489858085
0.4,2.4801342185644732,2.2804176775045826,2.6755273035497464
0.5,2.481211215840027,2.282261637861395,2.675740580220875
0.6,2.482268222665119,2.2843320562579956,2.6759371846899724
0.7,2.4833052390397516,2.2864038127315474,2.676114191178901
0.8,2.4843222649639243,2.288220679316391,2.6762773028266427
0.9,2.4853193004376353,2.2899726067678485,2.676569973090321
1,2.4862963454608864,2.2916909586193883,2.676863493752584
1.1,2.4872534000336772,2.293383869945548,2.6769560264558976
1.2,2.4881904641560073,2.295051340746327,2.67700221175965
1.3,2.489107537827877,2.296693371021724,2.677082114843543
1.4,2.490004621049287,2.2983099607717405,2.676997431547647
1.5,2.4908817138202357,2.299901109996376,2.677061832940705
1.6,2.491738816140724,2.30146681869563,2.677122996819919
1.7,2.492575928010753,2.3030188187020317,2.677170152198041
1.8,2.4933930494303205,2.3045457615944254,2.6772032990750714
1.9,2.4941901803994275,2.306052543277933,2.677222437451011
2,2.4949673209180743,2.307769798332343,2.6772275673258585
2.1,2.4957244709862607,2.309587963647758,2.677218688699615
2.2,2.496461630603987,2.3111035135835074,2.67719580157228
2.3,2.4971787997712527,2.3125467440727006,2.6771826556110554
2.4,2.4978759784880578,2.3141775877130057,2.6771860760645407
2.5,2.4985531667544025,2.3157156095462508,2.6771745698552847
2.6,2.4992103645702866,2.316976014763414,2.6771435111646795
2.7,2.4998475719357107,2.3182128853531037,2.677089565363887
2.8,2.5004647888506737,2.319453307486619,2.677020820599596
2.9,2.5010620153151772,2.32082510616845,2.676833724222591
3,2.50163925132922,2.3221808111942677,2.6768495481002366
3.1,2.502196496892802,2.3235134218905262,2.676575694720738
3.2,2.5027337520059234,2.3249917242025724,2.676175058708907
3.3,2.5032510166685844,2.3262338304911054,2.6761203855732596
3.4,2.503748290880786,2.327415910210494,2.6758523167033825
3.5,2.5042255746425264,2.3286854911746193,2.675587939228028
3.6,2.5046828679538065,2.329860913823616,2.6753647446020685
3.7,2.5051201708146262,2.3311416250370365,2.6751249459379727
3.8,2.505537483224985,2.3323281779353273,2.6750193352454996
3.9,2.505934805184884,2.333276729861041,2.674803621418888
4,2.5063121366943224,2.334221969856956,2.6743220892501633
4.1,2.5066694777532996,2.3352905493023384,2.674005695539573
4.2,2.5070068283618174,2.3363078191575153,2.6736086502622527
4.3,2.5073241885198745,2.3373110895716707,2.6732775236699577
4.4,2.5076215582274712,2.338283334499301,2.6729297199313073
4.5,2.5078989374846072,2.3392170975607467,2.6727051725462045
4.6,2.508156326291283,2.339996281492016,2.672486384314445
4.7,2.5083937246474988,2.3405386050070027,2.6722579588870174
4.8,2.508611132553253,2.3411637100476765,2.6718999407227164
4.9,2.508808550008548,2.341677153128926,2.6714927206470405
5,2.508985977013382,2.3424764193781122,2.6711155337001973
5.1,2.5091434135677555,2.3431781327762566,2.6709048262093873
5.2,2.509280859671669,2.343835224131044,2.6707156211692635
5.3,2.5093983153251216,2.344485160335016,2.670539687889871
5.4,2.5094957805281135,2.3452801844452855,2.670269341693426
5.5,2.509573255280646,2.34591591672561,2.669866350881151
5.6,2.5096307395827173,2.3464470644428603,2.6695022161682673
5.7,2.5096682334343283,2.346859089511324,2.66916151720167
5.8,2.5096857368354786,2.347269238690962,2.668780641072733
5.9,2.509683249786169,2.3474541658719694,2.668458926000654
6,2.509660772286399,2.3478480363118353,2.6680850530552362
6.1,2.509618304336168,2.3482902906213443,2.667847136377561
6.2,2.509555845935477,2.348356702091393,2.667560475501838
6.3,2.5094733970843253,2.3486253437562254,2.667347425683126
6.4,2.509370957782714,2.34866577118133,2.6670449979082864
6.5,2.5092485280306414,2.349017330286431,2.6668176751479504
6.6,2.5091061078281083,2.349351645578281,2.6665118195343567
6.7,2.5089436971751153,2.3493670601235355,2.66618381783601
6.8,2.508761296071661,2.349577519271218,2.665796949024474
6.9,2.5085589045177477,2.349349371031055,2.6654885048615644
7,2.508336522513373,2.349362472933817,2.6650829384876373
7.1,2.510650440668163,2.353380290145603,2.665785353844204
7.2,2.5129243779220323,2.35726089262457,2.6665187689066703
7.3,2.5151583342749806,2.3611983887000134,2.667172401282564
7.4,2.517352309727008,2.3650744708571705,2.6678685259438195
7.5,2.5195063042781145,2.3688814020118123,2.6684772219857065
7.6,2.5216203179283,2.372664077928238,2.669098380611671
7.7,2.523694350677565,2.37640519456075,2.669578048213169
7.8,2.5257284025259086,2.3801006602974537,2.6700918948449397
7.9,2.5277224734733323,2.383774676195145,2.6707937490315827
8,2.5296765635198346,2.387354740015639,2.67166530946051
8.1,2.531590672665416,2.3908630439388503,2.6721672049264265
8.2,2.5334648009100764,2.394376359933509,2.672430450121512
8.3,2.535298948253816,2.3976417987131047,2.6728092542738855
8.4,2.537093114696635,2.4006105210342024,2.6733500917895707
8.5,2.5388473002385332,2.4037647699700555,2.6738519077649734
8.6,2.54056150487951,2.406652823929112,2.674310448973179
8.7,2.5422357286195663,2.4097351879842304,2.674599782363165
8.8,2.543869971458702,2.4126597369405394,2.674806799551912
8.9,2.545464233396917,2.4156997541919383,2.6749706778646782
9,2.5470185144342103,2.4186968617046842,2.6751665696833067
9.1,2.5485328145705832,2.421531901206086,2.6754213874211734
9.2,2.5500071338060355,2.424315457771833,2.6756415064839194
9.3,2.5514414721405663,2.4271012488225083,2.6758333585323713
9.4,2.552835829574177,2.429795731893076,2.676067097142943
9.5,2.5541902061068664,2.43219066563416,2.676466242404109
9.6,2.555504601738635,2.4346347860879156,2.676543046631229
9.7,2.5567790164694824,2.4370396868877147,2.676542633838986
9.8,2.5580134502994096,2.4393384784820022,2.6764870874280082
9.9,2.5592079032284154,2.4417000421879558,2.676345534811853
10,2.560362375256501,2.443761816227928,2.6763537931704917
10.1,2.561476866383665,2.446150294343991,2.6762843000869356
10.2,2.5625513766099086,2.4485424765960246,2.6762137432740074
10.3,2.5635859059352315,2.4505505594985086,2.676110761370552
10.4,2.564580454359633,2.4524597425584567,2.6759864004486014
10.5,2.565535021883114,2.4545467379474695,2.675852156898398
10.6,2.566449608505674,2.456530353153526,2.6756837963941766
10.7,2.5673242142273134,2.458736528945984,2.6754798786440643
10.8,2.5681588390480314,2.4607330798915905,2.6752309707440642
10.9,2.568953482967829,2.4626398074115956,2.6749415131279606
11,2.5697081459867057,2.4645260147899735,2.6745582427622505
11.1,2.5704228281046615,2.4664515582786644,2.674071112292578
11.2,2.571097529321696,2.4680920974529794,2.673519753807782
11.3,2.5717322496378108,2.469703531812173,2.6729465044015397
11.4,2.5723269890530034,2.4712823182227552,2.6724340035246303
11.5,2.5728817475672763,2.4728327047074607,2.671842280408917
11.6,2.5733965251806277,2.4743850560011387,2.6711820074569523
11.7,2.573871321893058,2.475940162060267,2.6705481730219365
11.8,2.574306137704568,2.4773934175756733,2.669917310524337
11.9,2.5747009726151573,2.478759891194861,2.669199362247375
12,2.5750558266248254,2.4801793466866093,2.6684894089091715
12.1,2.575370699733572,2.4816103904872824,2.6676764623508067
12.2,2.5756455919413987,2.4830786680247448,2.6667923533591313
12.3,2.575880503248304,2.4844771250754762,2.66616435279912
12.4,2.576075433654289,2.4857418915697367,2.6654706591825854
12.5,2.576230383159353,2.4869139176421795,2.664693306621724
12.6,2.5763453517634956,2.488092118383669,2.6636846150653732
12.7,2.5764203394667176,2.4892572422154533,2.6625392810126036
12.8,2.5764553462690194,2.4902175235124586,2.66133739020641
12.9,2.5764503721703997,2.4911092170272005,2.660184212748132
13,2.576405417170859,2.492026355846046,2.6590851430346056
13.1,2.5763204812703973,2.492806368797863,2.657999803640185
13.2,2.5761955644690158,2.493528417971978,2.6569278573621147
13.3,2.5760306667667123,2.494358791434883,2.655627135083054
13.4,2.5758257881634883,2.4949505710390474,2.6545035774996464
13.5,2.5755809286593436,2.495445145224076,2.6534997613527316
13.6,2.5752960882542784,2.4959655388667015,2.652429084395953
13.7,2.5749712669482916,2.49647265594583,2.6512593789283536
13.8,2.5746064647413847,2.4969438583836907,2.6499396907387975
13.9,2.5742016816335562,2.4974723517682067,2.6485713706717062
14,2.573756917624807,2.49784584657222,2.6471908498928283
14.1,2.5732721727151375,2.498167942477066,2.6457683270357686
14.2,2.572747446904547,2.498452173565729,2.644330966735362
14.3,2.572182740193035,2.498742953007075,2.6428301642661385
14.4,2.5715780525806027,2.498896693453886,2.6412540253849954
14.5,2.5709333840672497,2.499016121801538,2.6397427282832187
14.6,2.570248734652975,2.499374157396604,2.638159186661705
14.7,2.56952410433778,2.4996846175690557,2.6365836470310433
14.8,2.5687594931216644,2.4997139284977004,2.6349469182834286
14.9,2.5679549010046276,2.499600320754209,2.6334067745357346
15,2.5671103279866703,2.4994882953002815,2.6318475242320885
15.1,2.5662257740677914,2.4993716274594746,2.6300615958371454
15.2,2.5653012392479924,2.499148159792914,2.6281993999820354
15.3,2.5643367235272723,2.4988629322498825,2.6263443929850103
15.4,2.563332226905631,2.4986060301930433,2.6242990340671266
15.5,2.56228774938307,2.498194713228238,2.622350714380598
15.6,2.561203290959586,2.4977431185008676,2.620357985634337
15.7,2.5600788516351836,2.49726297784346,2.6184466211620787
15.8,2.5589144314098586,2.4967748913777736,2.616416763883039
15.9,2.5577100302836135,2.496278950281737,2.6143241548212903
16,2.5564656482564474,2.4959816795295904,2.6122385355661297
16.1,2.55518128532836,2.495788944944814,2.610097155133979
16.2,2.553856941499353,2.4954064798551765,2.6079160518918587
16.3,2.552492616769424,2.494940552842724,2.6057125945622146
16.4,2.5510883111385745,2.494654795111156,2.6036741994772
16.5,2.5496440246068044,2.49402255206107,2.601406661848685
16.6,2.548159757174113,2.4931725765378605,2.599062340977809
16.7,2.5466355088405006,2.4922303761926123,2.596824951735329
16.8,2.5450712796059674,2.491376866416923,2.594551176954595
16.9,2.5434670694705135,2.4908157777643725,2.592125544126991
17,2.5418228784341395,2.4899651618087004,2.5898360133391907
17.1,2.5401387064968435,2.4891931665547693,2.587221398647336
17.2,2.538414553658627,2.488386163760225,2.584400904822144
17.3,2.5366504199194893,2.4874774616224693,2.5819884803519106
17.4,2.534846305279432,2.486554743848151,2.5793220712993676
17.5,2.533002209738453,2.4855835333267344,2.576685612938282
17.6,2.5311181332965527,2.4845759714040643,2.5739867116203294
17.7,2.5291940759537326,2.4837018051801936,2.571022190157856
17.8,2.527230037709991,2.4827491780140587,2.5684760737651047
17.9,2.525226018565329,2.4814819958454346,2.565783028674071
18,2.523182018519746,2.4802354386411274,2.5627461281362534
18.1,2.521098037573241,2.4790873798695707,2.559948575087531
18.2,2.518974075725816,2.477815339516102,2.5569458322080347
18.3,2.5168101329774704,2.4762880597480597,2.5540797552652412
18.4,2.5146062093282042,2.4749066455678896,2.551190644226107
18.5,2.5123623047780166,2.47332599807893,2.548413878917728
18.6,2.5100784193269075,2.4713891029703476,2.545669168913303
18.7,2.507754552974879,2.4694893247502296,2.5427644443794524
18.8,2.5053907057219287,2.4677448378509093,2.5397830877877254
18.9,2.502986877568058,2.4658748392788388,2.5367673283437924
19,2.500543068513266,2.464247077016236,2.5338190568672974
19.1,2.4980592785575535,2.462416721487638,2.5310310895544443
19.2,2.4955355077009203,2.4605968467005566,2.5282391988383326
19.3,2.4929717559433655,2.4584623760426374,2.5254363117263794
19.4,2.49036802328489,2.4567289929400484,2.522397976256986
19.5,2.4877243097254946,2.454546258047874,2.519322378310285
19.6,2.485040615265177,2.452423195090234,2.516197155172713
19.7,2.4823169399039395,2.4500271832010436,2.5130698504343227
19.8,2.4795532836417804,2.4475345259668124,2.5098899668073655
19.9,2.4767496464787015,2.444796100170998,2.50674097897002
20,2.4739060284147016,2.4421857349018183,2.503505510296301
20.1,2.47102242944978,2.4395862618487154,2.5004074181468896
20.2,2.468098849583938,2.436688007211818,2.4973787700767787
20.3,2.4651352888171747,2.4340620664637953,2.4943697921540253
20.4,2.4621317471494915,2.431075994218478,2.491218997193605
20.5,2.4590882245808867,2.4283835264710696,2.488111827462733
20.6,2.456004721111361,2.425693971255545,2.484956487110848
20.7,2.4528812367409154,2.422700430103244,2.48169579315209
20.8,2.4497177714695475,2.4197853481196936,2.478334072149564
20.9,2.44651432529726,2.4163432501488176,2.4751330333934263
21,2.443270898224051,2.4131791876608872,2.471842306191163
21.1,2.439987490249921,2.4099259248620033,2.4685997585543626
21.2,2.4366641013748707,2.4065315272889727,2.465187471077703
21.3,2.433300731598899,2.403107632652034,2.461778063991219
21.4,2.4298973809220072,2.3997114262501915,2.4583814613458403
21.5,2.426454049344194,2.396223950627455,2.454873959173263
21.6,2.422970736865459,2.39255204884157,2.4514108431138917
21.7,2.4194474434858053,2.3885954542088728,2.447898043232531
21.8,2.4158841692052286,2.38496102060164,2.4442191821258814
21.9,2.4122809140237322,2.3811513767705055,2.4409837702449417
22,2.4086376779413152,2.377282393275308,2.437743072551711
22.1,2.4049544609579767,2.373168466498373,2.4343443362818356
22.2,2.4012312630737176,2.3695029379811094,2.430578816087733
22.3,2.3974680842885374,2.365246009513439,2.4271013160869215
22.4,2.3936649246024366,2.3608125584812827,2.423575300231574
22.5,2.3898217840154152,2.356414388374655,2.4201149910196897
22.6,2.3859386625274723,2.3520473395358312,2.416624079937419
22.7,2.3820155601386093,2.347664306984757,2.4129715602256043
22.8,2.3780524768488247,2.343148919523594,2.409110514697865
22.9,2.3740494126581195,2.338858408559771,2.4053100304013357
23,2.3700063675664937,2.334541392455073,2.4015881938710626
23.1,2.3659233415739465,2.3300281577430035,2.3980297912335935
23.2,2.3618003346804795,2.325493286152253,2.3944492861436038
23.3,2.35763734688609,2.320942920756912,2.3908415497003412
23.4,2.353434378190781,2.3162154529170174,2.387354251768868
23.5,2.349191428594551,2.3113705407380243,2.383972181435692
23.6,2.3449084980973995,2.3065169011124387,2.3801672854981453
23.7,2.3405855866993277,2.3017422775776337,2.376284231045262
23.8,2.336222694400335,2.296819064905693,2.372676705684605
23.9,2.331819821200421,2.2916954728403036,2.3687858564962143
24,2.327376967099587,2.286194939647132,2.365131585575677
24.1,2.322894132097831,2.281189677448116,2.3612494762509586
24.2,2.3183713161951554,2.2761893919850946,2.3572036050334564
24.3,2.313808519391558,2.270863231341294,2.353216525543658
24.4,2.3092057416870397,2.2653926664258384,2.349129462881935
24.5,2.3045629830816012,2.259992194133784,2.344916550750831
24.6,2.2998802435752412,2.2544689789207513,2.340821145282621
24.7,2.295157523167961,2.2490265017540603,2.33687222129578
24.8,2.29039482185976,2.243323618276518,2.3327622634170817
24.9,2.285592139650637,2.237761840715889,2.3287278324291627
25,2.2807494765405942,2.232116265089781,2.324458083598422
25.1,2.27586683252963,2.226584136644222,2.3202624729534573
25.2,2.2709442076177453,2.2207049037737576,2.3158559942924284
25.3,2.26598160180494,2.2149186097053546,2.311777866480543
25.4,2.260979015091213,2.2091044697068445,2.3075828156068168
25.5,2.255936447476566,2.2033687959042494,2.3033157021606296
25.6,2.2508538989609974,2.197722821395257,2.29896638139618
25.7,2.2457313695445085,2.1920299655951183,2.2946415601041616
25.8,2.240568859227099,2.1862334385828937,2.2903177717050407
25.9,2.235366368008768,2.1803455737426085,2.285904958482041
26,2.230123895889516,2.174208607913997,2.2813788650864466
26.1,2.2248414428693435,2.168058362368325,2.2768122189988556
26.2,2.21951900894825,2.1619477513486003,2.272216373419951
26.3,2.2141565941262362,2.15577326707716,2.267642558228714
26.4,2.208754198403301,2.1494744184818755,2.2630106793032447
26.5,2.2033118217794456,2.1430853426798055,2.258303783631404
26.6,2.197829464254668,2.1366989684470092,2.2535786842084344
26.7,2.192307125828971,2.1302698109429,2.2488785246459218
26.8,2.1867448065023525,2.1236473439477113,2.2443006393242064
26.9,2.181142506274813,2.1171332835687418,2.239695971269253
27,2.1755002251463527,2.1104245378993376,2.234856726275864
27.1,2.169817963116971,2.1039842970792164,2.230047881911265
27.2,2.16409572018667,2.0974777765184216,2.225242545584102
27.3,2.1583334963554472,2.0907559208718567,2.220425891429216
27.4,2.152531291623303,2.08395922308892,2.215636693366089
27.5,2.146689105990239,2.077059331421398,2.210872404262734
27.6,2.1408069394562537,2.070309333038554,2.2060357538539526
27.7,2.1348847920213476,2.0634723515761664,2.2010421191692195
27.8,2.1289226636855205,2.0565953152656524,2.195911075037901
27.9,2.1229205544487724,2.049675239453653,2.1907850218390665
28,2.1168784643111036,2.042517348507372,2.1856446723158762
28.1,2.110796393272514,2.035201620452556,2.180473525871042
28.2,2.104674341333004,2.0278430275786903,2.1752704315792624
28.3,2.0985123084925723,2.0205377139902643,2.1700163899766625
28.4,2.09231029475122,2.013211224555634,2.1646716588820247
28.5,2.0860683001089475,2.005846502326304,2.1592883726903924
28.6,2.0797863245657533,1.998466030392545,2.1538348394118847
28.7,2.0734643681216385,1.9910250651855397,2.1484956002977067
28.8,2.067102430776603,1.9835817955217188,2.143133835776592
28.9,2.0607005125306466,1.9760381343937286,2.1377189770262173
29,2.0542586133837695,1.9686563049259638,2.1323339896054945
29.1,2.0477767333359704,1.961341988164095,2.1269750768771023
29.2,2.0412548723872517,1.9539215948378201,2.121574275770044
29.3,2.0346930305376123,1.9464401648964254,2.1158060432234818
29.4,2.0280912077870514,1.9389877837025704,2.1100706167265773
29.5,2.02144940413557,1.9313817108620988,2.104396208377296
29.6,2.014767619583167,1.923736083520411,2.09866767564378
29.7,2.008045854129844,1.9159737384442668,2.093021562847011
29.8,2.0012841077756,1.9081098907793486,2.0872580129062075
29.9,1.994482380520435,1.9002010865083776,2.081381869566825
30,1.9876406723643494,1.892144964527957,2.075445518828949
30.1,1.980758983307342,1.8840649176878874,2.069452966613573
30.2,1.973837313349415,1.8760702049566071,2.0634202512877167
30.3,1.9668756624905666,1.8682671009166916,2.0573409919066257
30.4,1.9598740307307971,1.8604380200138348,2.0513957795538524
30.5,1.9528324180701069,1.8523355779744253,2.04522190251872
30.6,1.9457508245084958,1.8442676256239152,2.0389763459209735
30.7,1.938629250045964,1.8360430334976954,2.032846159260209
30.8,1.9314676946825116,1.827833511959861,2.0266799372230886
30.9,1.9242661584181378,1.8197586375488202,2.02046575995021
31,1.9170246412528438,1.8113839320426415,2.014170315660884
31.1,1.909743143186628,1.8030845441197332,2.0078216954723325
31.2,1.902421664219492,1.7945780595923941,2.001373248556973
31.3,1.8950602043514353,1.786179674297327,1.9949723571071587
31.4,1.8876587635824573,1.7778009024868113,1.988681768342825
31.5,1.8802173419125587,1.769259739236431,1.9824113842568396
31.6,1.8727359393417389,1.7607499854518966,1.9760243805127664
31.7,1.8652145558699986,1.7522419413537071,1.969375366810484
31.8,1.8576531914973375,1.7437231971803546,1.9629975763544765
31.9,1.8500518462237556,1.7351008090028528,1.956569966482499
32,1.8424105200492527,1.7264712726025921,1.950051325654027
32.1,1.8347292129738282,1.7177904682142469,1.943399566816531
32.2,1.8270079249974838,1.7090105648628282,1.9366877438018384
32.3,1.8192466561202187,1.6999629945664905,1.930249168887911
32.4,1.811445406342032,1.6910658883731833,1.9237922500113271
32.5,1.8036041756629249,1.6819816037659034,1.91731243349928
32.6,1.7957229640828964,1.6726692236978096,1.9108298441496385
32.7,1.7878017716019476,1.6636043939630958,1.9041164752667958
32.8,1.779840598220078,1.6545856470521256,1.8974432219422188
32.9,1.7718394439372873,1.645526623456463,1.8907719225560777
33,1.7637983087535758,1.6363975860309636,1.8841252328878118
33.1,1.7557171926689432,1.6271370812191432,1.8774595228064215
