temp,mean,conf_lower,conf_upper
0,0.7916850407105467,0.6951410510672134,0.8851466472087312
0.1,0.7927522922977412,0.6967418195878842,0.8858067209712818
0.2,0.7938102430422882,0.6982108880876698,0.8864779035848072
0.3,0.7948588929441878,0.699668128988136,0.8871319042684178
0.4,0.7958982420034397,0.7011135422892827,0.8877965077037586
0.5,0.7969282902200443,0.7025471279911097,0.8884537227567327
0.6,0.797949037594001,0.7039688860936174,0.8891015083334186
0.7,0.7989604841253105,0.7053788165968056,0.8897375529000475
0.8,0.7999626298139724,0.7067769195006741,0.8903361294670453
0.9,0.8009554746599867,0.7081632688282582,0.8909281713447249
1,0.8019390186633535,0.7096609448276409,0.8915136785330864
1.1,0.8029132618240727,0.7111479746751526,0.8920926510321299
1.2,0.8038782041421445,0.7126218597257579,0.8926650888418551
1.3,0.8048338456175688,0.7140825999794562,0.8932309919622623
1.4,0.8057801862503455,0.7155301954362481,0.8937929947863865
1.5,0.8067172260404747,0.7168924218603066,0.8943595499379506
1.6,0.8076449649879562,0.718235227729539,0.8949192300982751
1.7,0.8085634030927902,0.7195660460868081,0.8954720352673601
1.8,0.809472540354977,0.7208304396587984,0.8960179654452054
1.9,0.8103723767745159,0.7219886670271487,0.8965570206318111
2,0.8112629123514075,0.7231360957038782,0.8970846303463753
2.1,0.8121441470856514,0.7243997040142892,0.8976033297730202
2.2,0.8130160809772478,0.7257488183525838,0.8981152124633928
2.3,0.8138787140261967,0.727116725152154,0.8986156128228613
2.4,0.8147320462324981,0.7284103992459674,0.8990346266680531
2.5,0.815576077596152,0.7295800009081234,0.8995682054913372
2.6,0.8164108081171583,0.7307736898870669,0.9001053899983219
2.7,0.817236237795517,0.7319054701139955,0.9006181470982793
2.8,0.8180523666312283,0.7330257470471065,0.9011347433965557
2.9,0.818859194624292,0.7341345206864005,0.90164405042199125
3,0.8196567217747083,0.7352317910318769,0.9021460681745859
3.1,0.8204449480824769,0.7363226958230995,0.9026407966543393
3.2,0.8212238735475978,0.7374075231282783,0.9031278870665602
3.3,0.8219934981700716,0.7384811630518944,0.9036258234166016
3.4,0.8227538219498978,0.7395436971745613,0.9041160901376111
3.5,0.8235048448870763,0.7406096465839564,0.9045608908646032
3.6,0.8242465669816073,0.7416514270908101,0.904981323939938
3.7,0.8249789882334906,0.7426654891381449,0.9054306313911121
3.8,0.8257021086427268,0.743664942332277,0.9058680592215329
3.9,0.8264159282093151,0.7446701726893197,0.9063056845305728
4,0.827120446933256,0.7455623211506399,0.9067272221367311
4.1,0.8278156648145494,0.7465457942144943,0.9071425040919454
4.2,0.8285015818531951,0.747493172144228,0.9074321635031645
4.3,0.8291781980491935,0.7484360795196339,0.9077159657986147
4.4,0.8298455134025442,0.7492663345613956,0.9080852371180943
4.5,0.8305035279132474,0.7502448015670811,0.9085668152415276
4.6,0.8311522415813031,0.7512114671835428,0.9090537981388627
4.7,0.8317916544067112,0.7521125230841287,0.9095095114035121
4.8,0.832421766389472,0.7530328903958154,0.9098846720425819
4.9,0.8330425775295851,0.7539133647734919,0.9102421279064146
5,0.8336540878270506,0.754779232602806,0.9105966897360451
5.1,0.8342562972818686,0.7555865312144605,0.9109380982507169
5.2,0.8348492058940391,0.7562997689039757,0.9113762339700737
5.3,0.8354328136635623,0.7570030547683227,0.9117559666937811
5.4,0.8360071205904376,0.7576994829510588,0.9121176008219134
5.5,0.8365721266746655,0.758540615287504,0.9124774244899616
5.6,0.8371278319162458,0.7593748577938944,0.9128313388520983
5.7,0.8376742363151787,0.7602033127568033,0.9131615330873558
5.8,0.8382113398714641,0.7609424773543877,0.9134654350034749
5.9,0.838739142585102,0.7615695636863489,0.9137644186464788
6,0.8392576444560922,0.7622434340230411,0.9141609694457937
6.1,0.8397668454844349,0.7629607341731155,0.9144454922253887
6.2,0.84026674567013,0.7636969265238889,0.914799536861542
6.3,0.8407573450131778,0.7643820406143798,0.915111717248312
6.4,0.8412386435135779,0.7650988166238746,0.9154620982700712
6.5,0.8417106411713307,0.7656360858723688,0.9157975736993735
6.6,0.8421733379864357,0.7661832655641501,0.9161816426081699
6.7,0.8426267339588931,0.7668115663891919,0.9164355512456266
6.8,0.8430708290887032,0.7673588483812241,0.9168245861421489
6.9,0.8435056233758658,0.7678942286105348,0.9171520690884154
7,0.8439311168203807,0.768451220441188,0.9174889787421064
7.1,0.8460656199947698,0.7713701028760489,0.9188567399971802
7.2,0.8481815214838638,0.7742696024058819,0.9202084470493458
7.3,0.8502788212876631,0.7771392464866846,0.9215282452612094
7.4,0.852357519406167,0.7799777626385396,0.922728770823606
7.5,0.8544176158393759,0.7828007956882,0.9238705643017486
7.6,0.8564591105872897,0.7855788754117162,0.9251644213852384
7.7,0.8584820036499083,0.7883517847871221,0.9264927899758486
7.8,0.8604862950272323,0.7909985330935108,0.9278936530678507
7.9,0.862471984719261,0.7935951637816,0.9291988242665554
8,0.8644390727259945,0.7963229839283867,0.9304640052372655
8.1,0.866387559047433,0.7988216909193531,0.9316562715114414
8.2,0.8683174436835766,0.801418234278449,0.9330023875620305
8.3,0.8702287266344251,0.8039916569391359,0.9343633469462729
8.4,0.8721214078999784,0.8065187277997601,0.9356481195971182
8.5,0.8739954874802367,0.8089899214407789,0.936886789991048
8.6,0.8758509653751999,0.811439761948197,0.9380772646400766
8.7,0.8776878415848681,0.8138533022949418,0.9392761027781549
8.8,0.8795061161092413,0.8162233752260009,0.9404318186163119
8.9,0.8813057889483193,0.8186112026743302,0.941649594022769
9,0.8830868601021025,0.8208849839759209,0.9428567947491988
9.1,0.8848493295705904,0.8233021011248977,0.9440075790963846
9.2,0.8865931973537831,0.8256775023550145,0.9451585147958375
9.3,0.888318463451681,0.827968930743118,0.9462399541496989
9.4,0.8900251278642837,0.8301492575612789,0.9473949358665618
9.5,0.8917131905915915,0.8323198506239081,0.9485964888045954
9.6,0.893382651633604,0.8345813627688432,0.9497421743255813
9.7,0.8950335109903214,0.8368956990007288,0.9509348928249789
9.8,0.8966657686617441,0.8391822648506617,0.9519670921343546
9.9,0.8982794246478716,0.8413768428350417,0.9530854739841788
10,0.8998744789487041,0.8433993196255316,0.954197790437822
10.1,0.9014509315642413,0.8454398949253229,0.9552152741372768
10.2,0.9030087824944835,0.8474115559281938,0.9563333025298179
10.3,0.9045480317394308,0.8493650161887591,0.9572814584247438
10.4,0.9060686792990829,0.8513490750588164,0.9583339881013135
10.5,0.90757072517344,0.8534696033947611,0.9593918352712809
10.6,0.909054169362502,0.8554932319336379,0.9604439262320743
10.7,0.9105190118662688,0.8575227115136019,0.9614198931273228
10.8,0.9119652526847408,0.8595603009459116,0.9623776584840531
10.9,0.9133928918179176,0.8615703281022972,0.9634145302414874
11,0.9148019292657995,0.8635363120917312,0.9643232034294755
11.1,0.9161923650283861,0.8654350397853778,0.9652100016740668
11.2,0.9175641991056778,0.8672774241924475,0.9661043967395893
11.3,0.9189174314976744,0.8691318551495264,0.967003039004501
11.4,0.9202520622043759,0.8709314615510761,0.9679254533776085
11.5,0.9215680912257824,0.8726257617325383,0.9687946936083054
11.6,0.9228655185618938,0.8743783019972001,0.9696130474242268
11.7,0.92414434421271,0.8761559081848316,0.9704110006966526
11.8,0.9254045681782315,0.8778737059704559,0.9711464655310635
11.9,0.9266461904584575,0.8796495829473797,0.971895402653492
12,0.9278692110533888,0.8813739262001166,0.9726563749877042
12.1,0.9290736299630249,0.8830561968312614,0.9734059980257082
12.2,0.9302594471873658,0.8846694965211783,0.9741064621165749
12.3,0.9314266627264118,0.88618240281845,0.9747882999264192
12.4,0.9325752765801627,0.8876810904864608,0.9754899182823589
12.5,0.9337052887486186,0.88926130185527,0.9762154348570985
12.6,0.9348166992317795,0.8907844589143517,0.9767698035474279
12.7,0.9359095080296451,0.8923020090143134,0.977408427219274
12.8,0.9369837151422158,0.8937600378550079,0.978010212909599
12.9,0.9380393205694915,0.8952327963456084,0.9786115696502102
13,0.9390763243114719,0.8967506802757828,0.9792238142751355
13.1,0.9400947263681574,0.8982655109674895,0.979818586402897
13.2,0.9410945267395476,0.8997491070112754,0.9803937235780776
13.3,0.9420757254256431,0.9011317025234744,0.9809542553479916
13.4,0.9430383224264434,0.9025246800747727,0.9815032536111451
13.5,0.9439823177419487,0.9038794933974328,0.9820272812720643
13.6,0.9449077113721588,0.9051919346623825,0.9825238539664634
13.7,0.945814503317074,0.906543824901705,0.9830059579229282
13.8,0.946702693576694,0.9079382973223259,0.983473079285039
13.9,0.9475722821510191,0.909306926171698,0.9838831635554919
14,0.9484232690400489,0.9106711164974045,0.9843298479820222
14.1,0.9492556542437838,0.9119827392467309,0.9848399667007055
14.2,0.9500694377622236,0.9131800769970724,0.9852936133484029
14.3,0.9508646195953683,0.9143440170920121,0.9856945658382079
14.4,0.9516411997432181,0.9154821278498821,0.9860878433957176
14.5,0.9523991782057726,0.9165664352590315,0.986463433732585
14.6,0.9531385549830322,0.9176626449559321,0.9868268001191511
14.7,0.9538593300749966,0.9187471759677517,0.9871958841954238
14.8,0.954561503481666,0.9198186227224867,0.9875237966820709
14.9,0.9552450752030405,0.9209099513952388,0.9878223195279346
15,0.9559100452391198,0.922083416520963,0.9881061615840638
15.1,0.956556413589904,0.9232352747336837,0.9883712794982629
15.2,0.9571841802553931,0.9244035876288065,0.9886183091486422
15.3,0.9577933452355873,0.9255503899554649,0.9888241817354617
15.4,0.9583839085304864,0.9266756817136595,0.9890172474493851
15.5,0.9589558701400905,0.9277077622852963,0.9892279601150256
15.6,0.9595092300643993,0.9287138261616983,0.9894219090518795
15.7,0.9600439883034131,0.9296447667531944,0.9895990942599479
15.8,0.9605601448571319,0.9304941028830251,0.9897184399491148
15.9,0.9610576997255559,0.931230319751142,0.9898914730351319
16,0.9615366529086845,0.9319459760531035,0.9900254970306344
16.1,0.9619970044065181,0.9328594669742394,0.9901169240931408
16.2,0.9624387542190564,0.9338227176488455,0.9901883255626182
16.3,0.9628619023463001,0.934689036755088,0.9902363305775523
16.4,0.9632664487882486,0.9355246080770254,0.9901847692538166
16.5,0.9636523935449021,0.9362573651152498,0.9901760724960587
16.6,0.9640197366162604,0.9369655156194019,0.990285697455929
16.7,0.9643684780023236,0.9376046784375994,0.9903060031632978
16.8,0.9646986177030918,0.9382252590280398,0.9903093026113325
16.9,0.9650101557185651,0.9388272573907237,0.9902867000995242
17,0.9653030920487431,0.9394106735256504,0.9902115440888675
17.1,0.9655774266936261,0.939983413312701,0.9901665583135135
17.2,0.9658331596532139,0.9406069558737628,0.9901125253067127
17.3,0.9660702909275068,0.9412292251828398,0.9900646004447482
17.4,0.9662888205165048,0.941842559849239,0.9899944704390381
17.5,0.9664887484202076,0.9424476870958108,0.9898470389001537
17.6,0.9666700746386152,0.9429711166662702,0.9896729633761123
17.7,0.9668327991717277,0.9434965356431595,0.989524848932846
17.8,0.9669769220195454,0.9439977435618927,0.9894076335567377
17.9,0.9671024431820682,0.9444974491463418,0.9892381043052425
18,0.9672093626592955,0.9448638703488439,0.9889513480889105
18.1,0.9672976804512279,0.945241753276659,0.9886838941706462
18.2,0.9673673965578651,0.9455751474892569,0.98829216689638
18.3,0.9674185109792075,0.9458747852417669,0.9879206743081298
18.4,0.9674510237152547,0.9460962789909713,0.9876495062296986
18.5,0.9674649347660069,0.9464909577208674,0.9874424829276272
18.6,0.9674602441314639,0.94690327744596825,0.9872382763945375
18.7,0.9674369518116259,0.9471868282073743,0.9870017522945125
18.8,0.9673950578064929,0.9474171449689,0.9866698493330148
18.9,0.9673345621160649,0.9476060948600901,0.9863122954716859
19,0.9672554647403417,0.9478414986100493,0.9858359876044513
19.1,0.9671577656793235,0.9480129377773734,0.9854159304924492
19.2,0.9670414649330102,0.9480834238731712,0.9851500691102018
19.3,0.966906562501402,0.9481477132041092,0.9848568654690888
19.4,0.9667530583844987,0.9482021495094077,0.9844770356073369
19.5,0.9665809525823001,0.9484618607226475,0.9840662755821805
19.6,0.9663902450948065,0.9486362176354335,0.9835906407245985
19.7,0.9661809359220179,0.9487408501538803,0.9830671363574264
19.8,0.9659530250639343,0.9488290499839005,0.9826090149619022
19.9,0.9657065125205557,0.9487954682942558,0.982099903069041
20,0.9654413982918819,0.9487632198178431,0.9817428199397384
20.1,0.965157682377913,0.9487614337452521,0.9811992402089714
20.2,0.9648553647786491,0.9486866405122323,0.980712133539062
20.3,0.9645344454940901,0.948628295683493,0.9801723186636062
20.4,0.9641949245242363,0.9484525451477819,0.9796675038364595
20.5,0.9638368018690872,0.9480904852670069,0.9791373234454073
20.6,0.963460077528643,0.9478467371484058,0.9786968184106825
20.7,0.9630647515029038,0.9477518758604437,0.978190229842877
20.8,0.9626508237918696,0.9474486177150323,0.9777937266775076
20.9,0.9622182943955404,0.9471327277987143,0.9771694806456787
21,0.961767163313916,0.9468098122168807,0.9765415030815536
21.1,0.9612974305469965,0.94651710706416,0.9759043998303181
21.2,0.9608090960947817,0.9461420690637883,0.9753538446954089
21.3,0.9603021599572723,0.9457869038116724,0.9747480365999703
21.4,0.9597766221344677,0.9452314790499192,0.9741384284011005
21.5,0.9592324826263681,0.9447988549958285,0.9734682087669524
21.6,0.9586697414329732,0.9442600433896072,0.9729303067168344
21.7,0.9580883985542834,0.9436958999756917,0.972331801455718
21.8,0.9574884539902986,0.9430116959590995,0.9716214608034206
21.9,0.9568699077410188,0.9423891836680758,0.9710309400743387
22,0.9562327598064437,0.941746207123077,0.9702986674014513
22.1,0.9555770101865737,0.9409375933780366,0.9695501759573047
22.2,0.9549026588814085,0.9401990340844256,0.9688888891244714
22.3,0.9542097058909482,0.9394829026499224,0.9681275971686707
22.4,0.9534981512151932,0.9388408068144631,0.9674444340672943
22.5,0.9527679948541428,0.9381221427119606,0.9668121627295991
22.6,0.9520192368077974,0.9373473324871626,0.9661292208854915
22.7,0.9512518770761569,0.9366704938604367,0.9654509490780798
22.8,0.9504659156592216,0.935680860447627,0.9646804591084184
22.9,0.949661352556991,0.9347287089397116,0.9639206196239078
23,0.9488381877694654,0.9337318873321601,0.9631772524083577
23.1,0.9479964212966447,0.932913063184517,0.9624201765596029
23.2,0.9471360531385289,0.9319892119531574,0.9615277184020472
23.3,0.9462570832951183,0.9310163298702908,0.9607395971577346
23.4,0.9453595117664124,0.9298671182675913,0.9599488812869195
23.5,0.9444433385524116,0.928797742392302,0.9591238245292896
23.6,0.9435085636531154,0.9277351346918434,0.9584165979130534
23.7,0.9425551870685243,0.9267449312974787,0.9577754584999861
23.8,0.9415832087986382,0.9256087101373244,0.9570306002463687
23.9,0.9405926288434572,0.9243116598613401,0.9562954160417968
24,0.9395834472029809,0.92310374276162,0.9555611446527861
24.1,0.9385556638772097,0.9218844216071178,0.9546314674926889
24.2,0.9375092788661432,0.9206534927872929,0.9539216397178645
24.3,0.9364442921697819,0.9193666594211882,0.9530514113521225
24.4,0.9353607037881254,0.9178565550264713,0.9520911443361839
24.5,0.9342585137211739,0.9165847500448395,0.9513080011396992
24.6,0.9331377219689274,0.915224957976996,0.9505210186249735
24.7,0.9319983285313855,0.9139468271904405,0.9496105404672803
24.8,0.930840333408549,0.9126801496166841,0.9486205069519085
24.9,0.9296637366004172,0.9112694995494026,0.9478426589673872
25,0.9284685381069904,0.9098286375396278,0.9469502371035267
25.1,0.9272547379282683,0.9082664607265796,0.9459030371638988
25.2,0.9260223360642513,0.9066881308256962,0.9448636093048856
25.3,0.9247713325149394,0.9050975430883712,0.9439195126113719
25.4,0.9235017272803323,0.9034892231231401,0.942955365225713
25.5,0.92221352036043025,0.9017777435138177,0.9419273407004362
25.6,0.920906711755233,0.9001649660491383,0.9408001226308061
25.7,0.9195813014647406,0.8985599050743851,0.9396404521528555
25.8,0.9182372894889534,0.8969008824974414,0.938576758356649
25.9,0.9168746758278711,0.8953237841653623,0.9374958505743687
26,0.9154934604814937,0.8938040449537515,0.9363843798310043
26.1,0.9140936434498211,0.8921944721934096,0.9352557557484407
26.2,0.9126752247328533,0.890448155585702,0.9341434460622084
26.3,0.9112382043305909,0.8885525001984085,0.933055962087482
26.4,0.9097825822430331,0.8866391627422232,0.9320408579815929
26.5,0.9083083584701803,0.8847931666450046,0.9309474247248519
26.6,0.9068155330120327,0.882945311097514,0.9298100753898682
26.7,0.9053041058685898,0.880984407838622,0.928704077329977
26.8,0.9037740770398517,0.8789906384647534,0.9275674111162261
26.9,0.9022254465258188,0.8770027114108225,0.9263654091318083
27,0.9006582143264906,0.875037059635124,0.92512862495983506
27.1,0.8990723804418674,0.8730451258506049,0.9239603318399441
27.2,0.8974679448719491,0.8710802043528492,0.9227056384779557
27.3,0.8958449076167361,0.869084276429982,0.9214356756846498
27.4,0.8942032686762278,0.8671224846519416,0.9201454987237394
27.5,0.8925430280504244,0.8651391414897865,0.9188582295490177
27.6,0.890864185739326,0.8631431821376732,0.9175460576842216
27.7,0.8891667417429324,0.8611395320483337,0.916218873574911
27.8,0.887450696061244,0.858997529089039,0.9148437302344574
27.9,0.8857160486942603,0.8568556811401541,0.9134323492698254
28,0.8839627996419817,0.8547358731098769,0.9120176252880893
28.1,0.8821909489044079,0.8525905956139929,0.9105728937913204
28.2,0.8804004964815391,0.8504580176609424,0.9090804200515934
28.3,0.8785914423733752,0.8482924288282284,0.9076036605607569
28.4,0.8767637865799163,0.846103089059302,0.9062017538427718
28.5,0.8749175291011622,0.8439004239656787,0.9048381630956082
28.6,0.8730526699371133,0.8417148973021454,0.9034432002559261
28.7,0.871169209087769,0.839462706787498,0.9019581938505383
28.8,0.8692671465531299,0.8371269402359037,0.9003922741904365
28.9,0.8673464823331958,0.8348892378329993,0.8987733736202931
29,0.8654072164279664,0.8326126531670839,0.8973320147352348
29.1,0.8634493488374421,0.8303136669164545,0.8958394511926948
29.2,0.8614728795616224,0.8280328393215524,0.8942678293427948
29.3,0.8594778086005082,0.8257322051315116,0.8926528515591672
29.4,0.8574641359540986,0.8234110030876258,0.8910179693923741
29.5,0.855431861622394,0.8210226261930667,0.8893893676571443
29.6,0.8533809856053942,0.8186156976083074,0.8877440629916539
29.7,0.8513115079030995,0.8161336777008144,0.8860820553959035
29.8,0.8492234285155098,0.8136404043350901,0.8843622690797773
29.9,0.8471167474426251,0.8111510700579379,0.8826962309590269
30,0.844991464684445,0.8086405715884419,0.8809958150270898
30.1,0.8428475802409701,0.8060590083427107,0.8792548982573616
30.2,0.8406850941121999,0.8035226786463004,0.877493958438163
30.3,0.8385040062981349,0.8006971483509295,0.8757142903026114
30.4,0.8363043167987747,0.7978903579485194,0.8739096281499525
30.5,0.8340860256141196,0.7953131191597529,0.8720264513924654
30.6,0.8318491327441693,0.7927157727238683,0.8702511764761918
30.7,0.8295936381889238,0.7901001329056998,0.8684041955217302
30.8,0.8273195419483836,0.7874692407703235,0.8666015051561835
30.9,0.8250268440225481,0.7847616952894191,0.8647877907475428
31,0.8227155444114176,0.7819666798344328,0.8628363352492843
31.1,0.8203856431149918,0.7791520526170362,0.8609155461614624
31.2,0.8180371401332713,0.7763820174287102,0.8590911305948427
31.3,0.8156700354662556,0.7736097556601917,0.857261846969949
31.4,0.8132843291139449,0.7708299902290199,0.8554084244041484
31.5,0.8108800210763389,0.7680263422841762,0.8534693692580588
31.6,0.8084571113534381,0.7651529057586459,0.8514536998761029
31.7,0.8060155999452421,0.7622969172919483,0.8494283506533327
31.8,0.8035554868517512,0.7594727619582833,0.847439013572724
31.9,0.8010767720729652,0.7566904714382684,0.8453903985923596
32,0.7985794556088839,0.753775894616888,0.8432338778042899
32.1,0.7960635374595078,0.7507641305760295,0.841093085509007
32.2,0.7935290176248364,0.7477345579457184,0.838940047345807
32.3,0.7909758961048702,0.7446641742397964,0.8368062436252258
32.4,0.7884041728996087,0.7416160609240887,0.8346804380312682
32.5,0.7858138480090524,0.7385806826850254,0.8324996130505505
