temp,mean,conf_lower,conf_upper
0,2.3922905467508606,2.1328377874097626,2.648952669230326
0.1,2.3944470283512773,2.136255382690064,2.649788803284701
0.2,2.396583519501233,2.1396468551737784,2.650611765355408
0.3,2.3987000202007285,2.143017345903518,2.651421555442446
0.4,2.400796530449764,2.146364056923642,2.6522181735458146
0.5,2.4028730502483384,2.1496845771659716,2.653001619665515
0.6,2.4049295795964527,2.1529789066305054,2.6537718938015455
0.7,2.4069661184941062,2.1562470453172438,2.654528995953908
0.8,2.4089826669413,2.1594889932261867,2.655272926122601
0.9,2.410979224938033,2.1627471186913043,2.656003684307626
1,2.412955792484305,2.1659922981234754,2.6567212705089807
1.1,2.4149123695801173,2.169210729370314,2.6574888339447407
1.2,2.416848956225469,2.1724024124318193,2.6582757861290123
1.3,2.4187655524203606,2.1755218698418064,2.6590487974988983
1.4,2.4206621581647907,2.1786124200161523,2.6598078680544
1.5,2.4225387734587613,2.1816778800616916,2.6605529977955173
1.6,2.4243953983022717,2.184725906977275,2.6612841867222494
1.7,2.426232032695321,2.187883256506562,2.662001434834597
1.8,2.42804867663791,2.191005131671075,2.6627047421325596
1.9,2.4298453301300387,2.19400998952079,2.6633941086161377
2,2.431621993171707,2.1969880898898664,2.6640133430861828
2.1,2.43593495637254,2.2039559872392482,2.66564761158
2.2,2.4402079386724513,2.2107785357511536,2.6672559393261692
2.3,2.444440940071443,2.217507873732494,2.668838326324691
2.4,2.448633960569513,2.2241850829544556,2.6703947725755643
2.5,2.452787000166662,2.230825437560955,2.6719145466896994
2.6,2.4569000588628906,2.237552058305383,2.673407986619248
2.7,2.460973136658198,2.2442769051783102,2.6748755794371473
2.8,2.465006233552585,2.2509521627915072,2.676317325143397
2.9,2.468999349546051,2.257580566408447,2.677733223737997
3,2.472952484638596,2.2642642844455203,2.6792426112877816
3.1,2.47686563883022,2.2709074502953257,2.680623024449047
3.2,2.4807388121209235,2.277494672560513,2.6819044877149034
3.3,2.4845720045107065,2.284031333621908,2.6833916742817165
3.4,2.488365215999568,2.290379414767264,2.6848428767831978
3.5,2.492118446587509,2.2966294000208602,2.6862550006887127
3.6,2.4958316962745286,2.302825180910335,2.6874192997249393
3.7,2.499504965060627,2.3089616189985436,2.6884865756330143
3.8,2.5031382529458064,2.314878872830694,2.689518639710003
3.9,2.5067315599300635,2.320731521824989,2.6906114005571817
4,2.5102848860134,2.3265333317443533,2.6917777264814147
4.1,2.513798231195815,2.3322248873283598,2.692960682775805
4.2,2.51727159547731,2.3378472108524737,2.6941716496466848
4.3,2.520704978857884,2.3436201993340733,2.6951323433811307
4.4,2.524098381337537,2.34918021457967,2.69621646055728
4.5,2.5274518029162696,2.354627447086685,2.697369125047961
4.6,2.5307652435940806,2.3600235376015464,2.698501004872015
4.7,2.534038703370971,2.3653716204682755,2.6996034064535017
4.8,2.5372721822469413,2.3706720685144305,2.7005990743223003
4.9,2.54046568022199,2.376063440315263,2.7015045969027263
5,2.5436191972961177,2.3814441249304306,2.702384225463881
5.1,2.546732733469325,2.386771785564986,2.7033011092238364
5.2,2.549806288741611,2.3920497991050182,2.704224659696701
5.3,2.5528398631129767,2.397180957148721,2.7051215473195764
5.4,2.5558334565834206,2.402139445896394,2.706005172439016
5.5,2.558787069152945,2.4070488662987457,2.706963578851262
5.6,2.5617007008215475,2.4121673116109297,2.707891372247092
5.7,2.564574351589229,2.4173964176137686,2.7087856268483677
5.8,2.567408021455991,2.4223351593631253,2.7096520457940723
5.9,2.5702017104218307,2.427091944664298,2.710634082541328
6,2.57295541848675,2.431788396884914,2.7115468376736365
6.1,2.575669145650749,2.4364326510995107,2.7121644353549916
6.2,2.5783428919138265,2.4409244271246897,2.7127229977562175
6.3,2.5809766572759836,2.4453180637212943,2.7133025900570162
6.4,2.5835704417372196,2.4496609730902943,2.7137049080974585
6.5,2.5861242452975346,2.4539531552316878,2.714232891557195
6.6,2.5886380679569285,2.4582360170933084,2.714744556185581
6.7,2.5911119097154023,2.4625313707329424,2.7152296180683058
6.8,2.5935457705729545,2.466780052341203,2.715688077205369
6.9,2.5959396505295866,2.470989693086689,2.7161199335967705
7,2.5982935495852972,2.475493095965575,2.7166445233093457
7.1,2.6006074677400868,2.480084831260566,2.7170393829993897
7.2,2.6028814049939566,2.4843459819336395,2.7173345371600135
7.3,2.605115361346905,2.4885068439179054,2.7178584086547843
7.4,2.6073093367989326,2.4928273498110314,2.718376115366012
7.5,2.609463331350039,2.497027064654845,2.7188551513405836
7.6,2.6115773450002244,2.500921193640326,2.719086397713485
7.7,2.6136513777494894,2.504758680318936,2.7192109058317158
7.8,2.6156854295978333,2.508407951857916,2.7192985751390313
7.9,2.6176795005452567,2.512162558660566,2.7193417615874917
8,2.619633590591759,2.515876355528859,2.719674605351326
8.1,2.6215476997373397,2.5194829265288217,2.7197475742118415
8.2,2.6234218279820007,2.5231920798812677,2.7197349430001836
8.3,2.6252559753257403,2.526836683921661,2.7198311735119445
8.4,2.6270501417685597,2.530232067866522,2.719850603714848
8.5,2.6288043273104575,2.5336283610953325,2.719955444610474
8.6,2.6305185319514344,2.536905544794657,2.7200938556725376
8.7,2.6321927556914906,2.5402662001880687,2.7201993564375666
8.8,2.633826998530626,2.543511253223571,2.7203454834451986
8.9,2.635421260468841,2.546593051485,2.720304534013989
9,2.6369755415061347,2.549673796663911,2.719985044205063
9.1,2.6384898416425075,2.5528516054970103,2.719817970818668
9.2,2.6399641608779594,2.5559552058307142,2.719557523829941
9.3,2.6413984992124906,2.558970176878585,2.719350273490636
9.4,2.642792856646101,2.5618103603795426,2.7191270243159233
9.5,2.6441472331787907,2.564588083797801,2.7191157536019492
9.6,2.645461628810559,2.567437686125671,2.719093569839287
9.7,2.646736043541407,2.5700517661142093,2.719042150900788
9.8,2.647970477371334,2.572493737739727,2.7188472443842286
9.9,2.64916493030034,2.574759108272434,2.7187326945722314
10,2.6503194023284253,2.5772767263731597,2.7186490282876505
10.1,2.6514338934555894,2.579671351097464,2.7185308535001544
10.2,2.652508403681833,2.5819959132530297,2.7183878337637832
10.3,2.6535429330071554,2.5842878797323987,2.7182918035682837
10.4,2.654537481431557,2.5866994935926853,2.717936774075942
10.5,2.655492048955039,2.5889263750976452,2.717598184656726
10.6,2.656406635577598,2.59102323151415,2.717295213823056
10.7,2.6572812412992377,2.592987256589015,2.717001670234581
10.8,2.6581158661199558,2.5949243486610465,2.716653940982674
10.9,2.658910510039753,2.596616057525562,2.7163513642865347
11,2.65966517305863,2.5987271830198377,2.715982621215965
11.1,2.6603798551765854,2.6009876026447616,2.7157358259120454
11.2,2.661054556393621,2.60256956405056,2.7154262779089873
11.3,2.661689276709734,2.604281436204585,2.7152000821290514
11.4,2.6622840161249286,2.605952707269995,2.7149010748076967
11.5,2.6628387746392006,2.6078422882083414,2.7146622458381042
11.6,2.663353552252552,2.6094370087173546,2.7143253315339058
11.7,2.6638283489649828,2.610689293852298,2.713943384034767
11.8,2.664263164776492,2.6121401751334963,2.7134877704589395
11.9,2.6646579996870816,2.613283825575164,2.712992229919025
12,2.6650128536967497,2.614652632503744,2.7126024874227435
12.1,2.6653277268054962,2.6159865059508443,2.711921845884036
12.2,2.665602619013323,2.617347167454352,2.7111586742859757
12.3,2.6658375303202284,2.6185490381581955,2.7106749357446063
12.4,2.6660324607262136,2.6196563104317625,2.7100335466214487
12.5,2.6661874102312773,2.6207935008607883,2.7093216731405247
12.6,2.66630237883542,2.6217421318441483,2.7086766979601533
12.7,2.6663773665386423,2.6227824664503863,2.7078868805842586
12.8,2.6664123733409433,2.6237109661880513,2.7072786830773397
12.9,2.666407399242324,2.6244079894564947,2.706761642858234
13,2.6663624442427833,2.625035723060307,2.706161743406379
13.1,2.6662775083423216,2.625743010558671,2.7053705703167275
13.2,2.66615259154094,2.626431974880644,2.704273348256595
13.3,2.6659876938386367,2.626881654508072,2.703370856705855
13.4,2.665782815235413,2.6271642028642646,2.7026269742391515
13.5,2.6655379557312684,2.627663922618536,2.701982661107764
13.6,2.6652531153262022,2.627769103387705,2.7013204201114904
13.7,2.664928294020217,2.6278579689585224,2.7004925060849976
13.8,2.6645634918133085,2.627899218528819,2.6994658551040613
13.9,2.664158708705481,2.6279828379879913,2.6983600353194377
14,2.663713944696732,2.628335493673034,2.697329434153178
14.1,2.663229199787062,2.6284546512922784,2.6965374103458597
14.2,2.662704473976471,2.6285038267290983,2.6957453622977754
14.3,2.662139767264959,2.628569063254007,2.694951490979797
14.4,2.661535079652527,2.628711859414719,2.6941182652905544
14.5,2.6608904111391745,2.628422005193798,2.6933309736197453
14.6,2.6602057617248995,2.62810294390027,2.692273368997951
14.7,2.659481131409705,2.627651731081795,2.691175155086748
14.8,2.6587165201935883,2.6271187239467775,2.6899948023781404
14.9,2.657911928076552,2.6264070893686213,2.6888007765048814
15,2.6570673550585946,2.6256175544162876,2.6877175757167473
15.1,2.6561828011397157,2.625229855595021,2.6866426025197554
15.2,2.655258266319917,2.6244967662555982,2.685498432646833
15.3,2.654293750599196,2.6236540334129277,2.684409389554779
15.4,2.6532892539775554,2.6225130937236343,2.683223530302488
15.5,2.652244776454994,2.6218861881722093,2.6821168342508317
15.6,2.6511603180315104,2.621156091754532,2.680911429206284
15.7,2.650035878707108,2.6202203325629565,2.6796622616454773
15.8,2.648871458481783,2.6193054674917335,2.6783231776359786
15.9,2.647667057355538,2.61797918892186,2.6770359093733873
16,2.646422675328372,2.6169003978339243,2.675627838163705
16.1,2.6451383124002845,2.61587586118502,2.674208854556782
16.2,2.643813968571277,2.6145744543263962,2.6727825833882832
16.3,2.6424496438413483,2.6133940467796926,2.671280579359413
16.4,2.641045338210499,2.61217170612547,2.6699077568928855
16.5,2.6396010516787287,2.610888669158318,2.668404955704924
16.6,2.6381167842460367,2.6094970756239935,2.6668724014493748
16.7,2.636592535912425,2.6080684514427066,2.6652506417979582
16.8,2.6350283066778917,2.6065419150816203,2.663691880225879
16.9,2.633424096542438,2.604954000981559,2.662259887540961
17,2.6317799055060638,2.603269802256728,2.6609121070819004
17.1,2.6300957335687674,2.601565984130807,2.6592206428281866
17.2,2.6283715807305517,2.599960355397741,2.65731831576574
17.3,2.626607446991414,2.598087590166673,2.655581932791289
17.4,2.624803332351356,2.5959729978366752,2.653977874188958
17.5,2.6229592368103773,2.5940492875913748,2.6522902136979853
17.6,2.621075160368477,2.591919761402446,2.650575764313613
17.7,2.619151103025657,2.59003081120114,2.648652487742755
17.8,2.6171870647819153,2.587998387622304,2.6466255500483196
17.9,2.615183045637253,2.58607744939415,2.6445434900556286
18,2.61313904559167,2.584189885806377,2.6424739862364977
18.1,2.611055064645165,2.5821133826755895,2.6404605082855532
18.2,2.608931102797741,2.579996664891337,2.6383977141993498
18.3,2.6067671600493947,2.577839840923318,2.636328150234295
18.4,2.604563236400128,2.575566088352453,2.6343542140853096
18.5,2.602319331849941,2.5730083637715513,2.6325968787088794
18.6,2.600035446398832,2.57057678735307,2.630471126155168
18.7,2.597711580046803,2.5681407223652695,2.628198606313838
18.8,2.595347732793853,2.5656102683512625,2.6258277038445055
18.9,2.5929439046399816,2.5631089536408993,2.623412308580832
19,2.5905000955851905,2.560163537869718,2.6211604175994396
19.1,2.5880163056294774,2.557546451256071,2.618751517898868
19.2,2.5854925347728446,2.554944851056735,2.6163200503126687
19.3,2.58292878301529,2.5521125553568633,2.6138193783171135
19.4,2.580325050356814,2.5492169901159487,2.6112352533945806
19.5,2.577681336797419,2.5465139934502616,2.608631306330355
19.6,2.5749976423371015,2.5437371989392004,2.6059516108087903
19.7,2.572273966975864,2.5410247289012706,2.60327789882674
19.8,2.5695103107137056,2.5381118490261656,2.6005258432334206
19.9,2.566706673550626,2.535148183501507,2.597714205122367
20,2.5638630554866255,2.532225913205341,2.594858929320703
20.1,2.560979456521704,2.5293905346386287,2.591968272774732
20.2,2.558055876655862,2.5263158301212036,2.5889961560336
20.3,2.5550923158890995,2.523248400340761,2.5859883073295338
20.4,2.5520887742214153,2.5202273753255042,2.5830281294942985
20.5,2.549045251652811,2.5170742627040115,2.57996010323232
20.6,2.5459617481832852,2.5138921574086983,2.5767954369057087
20.7,2.542838263812839,2.510671769170785,2.5737651761157094
20.8,2.539674798541472,2.507388256612244,2.570645997202007
20.9,2.536471352369184,2.5040491483899094,2.5674035834718945
21,2.533227925295975,2.5006679302506245,2.564083421165956
21.1,2.5299445173218453,2.49731450417153,2.5607342344853965
21.2,2.526621128446795,2.4941391659462813,2.557373868090977
21.3,2.523257758670823,2.490910834000295,2.5540185387065506
21.4,2.5198544079939307,2.4875693368698615,2.550768743293773
21.5,2.516411076416118,2.4839094050484043,2.547244817129826
21.6,2.512927763937384,2.4803435012812036,2.543660558329697
21.7,2.5094044705577288,2.4767289380891295,2.540153326916217
21.8,2.5058411962771534,2.4731864380714654,2.5365899920219737
21.9,2.5022379410956566,2.469762436131007,2.532967995287631
22,2.4985947050132395,2.4661151621258877,2.52924655102247
22.1,2.494911488029901,2.462516608823811,2.5254736280756793
22.2,2.491188290145642,2.4587225018509353,2.5215938191840745
22.3,2.4874251113604617,2.4549995691356914,2.5177844419230206
22.4,2.483621951674361,2.4512732470206764,2.513975045084166
22.5,2.479778811087339,2.447400317455478,2.5102299296805395
22.6,2.4758956895993967,2.4436359654761084,2.506321940343745
22.7,2.4719725872105336,2.4399082609379548,2.5020822126486433
22.8,2.468009503920749,2.4361817831741783,2.4980702810587037
22.9,2.464006439730044,2.4323612961286414,2.4940498653317875
23,2.459963394638418,2.4284074885494373,2.4899519338240186
23.1,2.455880368645871,2.4244037168496266,2.4858989313046314
23.2,2.4517573617524033,2.4203123072511166,2.4817192751134556
23.3,2.447594373958015,2.4160608358765496,2.477559646040744
23.4,2.4433914052627053,2.4119929786422336,2.473317645295179
23.5,2.4391484556664755,2.4077540360826672,2.4690408535989974
23.6,2.434865525169324,2.403325574241281,2.464734785735721
23.7,2.430542613771252,2.399122176205076,2.4603059405097083
23.8,2.426179721472259,2.3949650286088824,2.4558827616869254
23.9,2.4217768482723456,2.3907160517606143,2.4514414083072955
24,2.417333994171511,2.3864586459433577,2.4470175528117353
24.1,2.4128511591697555,2.382116997849649,2.4425618318914353
24.2,2.4083283432670797,2.3777490932404404,2.438050765056585
24.3,2.4037655464634824,2.373037428560121,2.4334889011431056
24.4,2.399162768758964,2.3686355295404065,2.42876023624817
24.5,2.3945200101535256,2.363814596178467,2.4240749080341573
24.6,2.3898372706471656,2.359143082076952,2.419259926983994
24.7,2.3851145502398854,2.354302904455489,2.414514801361821
24.8,2.3803518489316837,2.3493850686835396,2.4096527897077307
24.9,2.3755491667225614,2.3444589929271733,2.4047137695047756
25,2.370706503612519,2.3394402314115714,2.399761424646466
25.1,2.365823859601554,2.3343876041487674,2.3947687473688237
25.2,2.36090123468967,2.329524923016435,2.3898685440596505
25.3,2.355938628876864,2.3247211831019348,2.3848823045871885
25.4,2.3509360421631373,2.319778082059639,2.379992121863108
25.5,2.3458934745484905,2.314563790323798,2.374856243473314
25.6,2.3408109260329217,2.309429539076051,2.3696934965547514
25.7,2.3356883966164332,2.304241512443559,2.364577360852652
25.8,2.330525886299023,2.2990220394031202,2.359397478645219
25.9,2.3253233950806917,2.2938752023380253,2.3542663476013916
26,2.320080922961441,2.2884917169658436,2.3490758321076104
26.1,2.314798469941268,2.2831325854659283,2.3438993113176627
26.2,2.3094760360201745,2.277570523594846,2.3384297016138706
26.3,2.3041136211981605,2.272036056116308,2.333091608598523
26.4,2.298711225475225,2.26660985966658,2.327669986023759
26.5,2.29326884885137,2.2610139830934006,2.3222378989710206
26.6,2.2877864913265924,2.255385888401486,2.316720856774068
26.7,2.282264152900895,2.2495147929386796,2.3110333528061284
26.8,2.2767018335742764,2.2439992324276474,2.3054165728136464
26.9,2.2710995333467374,2.2382253831594454,2.300005156060778
27,2.2654572522182774,2.2324821088561286,2.294327457281586
27.1,2.2597749901888955,2.226512835809272,2.288922341052639
27.2,2.2540527472585943,2.2208863026165675,2.283251300039173
27.3,2.2482905234273716,2.2146524147534263,2.2778102146463075
27.4,2.242488318695228,2.2085550011849078,2.2721389702185295
27.5,2.2366461330621634,2.2020764638350494,2.2665462088296535
27.6,2.230763966528178,2.195667339118474,2.2609728287392317
27.7,2.224841819093272,2.1892956627764644,2.2552434985200596
27.8,2.218879690757445,2.1829945388456844,2.249427747381529
27.9,2.2128775815206967,2.176750409850619,2.2437173234256904
28,2.2068354913830284,2.170452975798275,2.2380778165851813
28.1,2.200753420344438,2.1639902279383625,2.2325234704421786
28.2,2.194631368404928,2.1575863061237115,2.2269431226841614
28.3,2.1884693355644966,2.1508362335455424,2.221326370446924
28.4,2.1822673218231445,2.144232586442346,2.2156339627353
28.5,2.176025327180872,2.1374947935921,2.2099635861262312
28.6,2.1697433516376776,2.1308371523024023,2.2040910716729067
28.7,2.163421395193563,2.1241177296968825,2.1981789263928366
28.8,2.157059457848527,2.117234866925728,2.1925718701138304
28.9,2.1506575396025704,2.110084483642681,2.186726058961353
29,2.144215640455694,2.102763120132663,2.1809195201552303
29.1,2.137733760407895,2.0955460837018105,2.1750142918780933
29.2,2.1312118994591764,2.0883806329413144,2.169083942463402
29.3,2.1246500576095366,2.0812712643921616,2.163176928142904
29.4,2.1180482348589758,2.0739555669206817,2.157124929773053
29.5,2.1114064312074943,2.0664895324326444,2.1509115439627324
29.6,2.1047246466550913,2.059006858421765,2.1448662031871852
29.7,2.0980028812017686,2.0515065992943473,2.1389057528023923
29.8,2.0912411348475244,2.043803498904478,2.132773157930667
29.9,2.084439407592359,2.0361259019428464,2.126824956449201
30,2.0775976994362737,2.0283950549167438,2.12067255162588
30.1,2.0707160103792663,2.020634200321205,2.114653376951038
30.2,2.0637943404213392,2.012661976736334,2.108260881981848
30.3,2.0568326895624907,2.004632195577696,2.1022753511123486
30.4,2.0498310578027215,1.9966441898315659,2.0960565200597716
30.5,2.0427894451420316,1.9887040773733857,2.0897847056289685
30.6,2.03570785158042,1.9807777946128335,2.0835048230606965
30.7,2.0285862771178884,1.972556968361285,2.077288961538734
30.8,2.021424721754436,1.9646525441029135,2.070845073605043
30.9,2.0142231854900623,1.9565429495315545,2.0646288411860216
31,2.006981668324768,1.9482211989325768,2.0582098305562573
31.1,1.9997001702585524,1.9396608447358912,2.0519359124525045
31.2,1.9923786912914165,1.931490333931969,2.0454768737419444
31.3,1.9850172314233596,1.9229316864239259,2.0391619415243465
31.4,1.9776157906543816,1.914313979126483,2.0326081053458607
31.5,1.970174368984483,1.905450443463086,2.026128560953109
31.6,1.9626929664136634,1.8968265465803942,2.0196269998322407
31.7,1.955171582941923,1.8879033067265172,2.0131975971287712
31.8,1.9476102185692619,1.8787978758490014,2.0067856039737517
31.9,1.9400088732956795,1.869914242734363,2.0004625116149604
32,1.932367547121177,1.8607760445480341,1.993970933910429
32.1,1.9246862400457525,1.8518990721466306,1.9876171648593055
32.2,1.916964952069408,1.8429743977793374,1.9812941175283563
32.3,1.9092036831921428,1.8338590007054503,1.9749392908952625
32.4,1.9014024334139563,1.8246085876534837,1.9686367310496475
32.5,1.8935612027348494,1.815421508387871,1.962247706989546
32.6,1.8856799911548208,1.8062494467979229,1.9557319131969297
32.7,1.877758798673872,1.797073906788531,1.949127743900644
32.8,1.8697976252920023,1.787804111820083,1.9427600768780002
32.9,1.8617964710092116,1.7782617586530571,1.9361585697544483
33,1.8537553358255003,1.7685487502847863,1.9296158402921137
33.1,1.8456742197408675,1.7588448466446012,1.9229714842231331
