temp,mean,conf_lower,conf_upper
0,0.7786818851828576,0.6778446805019795,0.8886153705710598
0.1,0.7799314507700228,0.6795594829523676,0.8892539822727403
0.2,0.7811720650696985,0.6812630286198385,0.8898871585107881
0.3,0.782403728081885,0.6829553175043924,0.8905334415377089
0.4,0.783626439806582,0.6846363496060294,0.8911645448919239
0.5,0.7848402002437893,0.6863061249247494,0.8917900178584568
0.6,0.7860450093935075,0.6879646434605523,0.8924098604373073
0.7,0.7872408672557363,0.6896119052134382,0.8930240726284753
0.8,0.7884277738304756,0.6912479101834073,0.8936326544319612
0.9,0.7896057291177254,0.6928726583704592,0.8942333151520896
1,0.7907747331174859,0.6944861497745942,0.8948261472314649
1.1,0.7919347858297568,0.6960883843958121,0.8954133813695156
1.2,0.7930858872545385,0.6976793622341131,0.8960715727865165
1.3,0.7942280373918309,0.6992590832894973,0.8967389494727653
1.4,0.7953612362416336,0.7008462425543459,0.8973999554026104
1.5,0.796485483803947,0.70245315008504,0.8979954433954882
1.6,0.797600780078771,0.7040482070459669,0.8986720528869867
1.7,0.7987071250661055,0.7056341960551034,0.8993421918660114
1.8,0.7998045187659508,0.7072122064544952,0.9000021837713252
1.9,0.8008929611783066,0.7087761032342987,0.9006553013303304
2,0.8019724523031728,0.7103227504794251,0.9013166286537825
2.1,0.8030429921405497,0.7118575476275666,0.9019628008835918
2.2,0.8041045806904373,0.713380494678723,0.9026024862130283
2.3,0.8051572179528355,0.7148915916328944,0.9032356846420919
2.4,0.8062009039277442,0.716390838490081,0.9038623961707826
2.5,0.8072356386151633,0.7178793144177207,0.9044818105457818
2.6,0.8082614220150932,0.7193598629529198,0.9050926135129391
2.7,0.8092782541275337,0.7208285141162558,0.9056690287867191
2.8,0.8102861349524848,0.7222852679077291,0.9062269403970457
2.9,0.8112850644899465,0.7237301243273395,0.906806472954405
3,0.8122750427399186,0.7251630833750867,0.9073718890439983
3.1,0.814774173914249,0.7287604363578225,0.9087590394357553
3.2,0.8172554025136005,0.7323336486061977,0.9101561484763896
3.3,0.8197187285379735,0.735882720120212,0.9115345467307667
3.4,0.8221641519873673,0.7394076508998657,0.9129159714388941
3.5,0.8245916728617821,0.7429084409451585,0.9142623754271866
3.6,0.8270012911612185,0.7463850902560907,0.915642015798346
3.7,0.8293930068856759,0.7498375988326621,0.9170052984388013
3.8,0.8317668200351547,0.7532512766436743,0.918345249202217
3.9,0.8341227306096544,0.7566642964810342,0.9196277431145481
4,0.8364607386091751,0.7600383131529715,0.9208682429702246
4.1,0.8387808440337172,0.7633926997673692,0.9221536863638045
4.2,0.8410830468832805,0.7666858708960815,0.9234269760807421
4.3,0.8433673471578652,0.7699503229238128,0.924688112121038
4.4,0.8456337448574707,0.7732325031286433,0.9259370944846916
4.5,0.8478822399820976,0.7765254423769714,0.9272236100190097
4.6,0.8501128325317455,0.7797939539908343,0.9285174039072255
4.7,0.8523255225064146,0.7830104415519692,0.9297985487061444
4.8,0.8545203099061052,0.7861182546765464,0.9310670444157667
4.9,0.8566971947308166,0.7891616921628322,0.9322828850052663
5,0.8588561769805492,0.7921848751037466,0.9334796956644598
5.1,0.860997256655303,0.7951858973671377,0.934659848139876
5.2,0.863120433755078,0.7981698710355649,0.9358121165520992
5.3,0.8652257082798744,0.8012003171979527,0.936920962715746
5.4,0.8673130802296918,0.804182174087438,0.938016537180268
5.5,0.8693825496045302,0.807126107691214,0.9391197019977771
5.6,0.87143411640439,0.810070691158314,0.9401876187770875
5.7,0.8734677806292709,0.8129156219987501,0.9412416776766185
5.8,0.8754835422791731,0.8157331095989127,0.9422813091363145
5.9,0.8774814013540965,0.8185277270263784,0.9432994642915538
6,0.8794613578540407,0.8213044377401528,0.9442562880252525
6.1,0.8814234117790063,0.8240618719883714,0.9452136561780329
6.2,0.8833675631289931,0.8267745973478461,0.9462061743966104
6.3,0.8852938119040012,0.8294833726835976,0.9472053825435425
6.4,0.8872021581040304,0.832115889481999,0.9481829941572508
6.5,0.8890926017290806,0.834726106273957,0.9491473095803087
6.6,0.8909651427791521,0.8373263433308296,0.9500711404740962
6.7,0.8928197812542447,0.8399067547128944,0.950907685889169
6.8,0.8946565171543588,0.8424645827834742,0.9518588606386829
6.9,0.8964753504794938,0.8449998275425689,0.9528017814697205
7,0.8982762812296499,0.8475124889901784,0.9537084911181293
7.1,0.900059309404827,0.8500025671263025,0.9545870785829815
7.2,0.9018244350050257,0.8524700619509415,0.9555573431954172
7.3,0.9035716580302456,0.8549149734640955,0.9565399091907321
7.4,0.9053009784804864,0.857357432406094,0.9575223651858777
7.5,0.9070123963557485,0.859812922120531,0.9583995614878816
7.6,0.9087059116560315,0.8622390611328122,0.9593477607013214
7.7,0.910381524381336,0.8647120249730835,0.9602936518430225
7.8,0.9120392345316619,0.8671194644020874,0.961223393584062
7.9,0.9136790421070086,0.8694726548895052,0.9621064079919055
8,0.9153009471073765,0.8717991792203067,0.9630062461855008
8.1,0.9169049495327655,0.8741064928494315,0.9639044964236354
8.2,0.9184910493831758,0.8764739051357198,0.9648218009164596
8.3,0.9200592466586075,0.8787620097175439,0.965684729790353
8.4,0.9216095413590601,0.880990991351607,0.9665295089009993
8.5,0.9231419334845339,0.8832357619297453,0.9673673193206923
8.6,0.9246564230350287,0.8854037937089372,0.9682351865904584
8.7,0.9261530100105448,0.8875266777539179,0.9690771530278769
8.8,0.9276316944110825,0.88969502959351765,0.9697875553739911
8.9,0.929092476236641,0.8919058009450995,0.9705627742493954
9,0.9305353554872206,0.8940491624046609,0.9713098047970794
9.1,0.9319603321628214,0.8961226407683769,0.9719899042099592
9.2,0.9333674062634434,0.8981612964691912,0.97273127300123
9.3,0.9347565777890868,0.9001657159246936,0.9734446426784966
9.4,0.9361278467397514,0.9021117864052142,0.9741354138146661
9.5,0.9374812131154368,0.9040613748955822,0.9748488121505571
9.6,0.9388166769161433,0.9059820346932945,0.9755628846179278
9.7,0.9401342381418714,0.9078998003312382,0.9762358710425492
9.8,0.9414338967926206,0.9096870798784411,0.9768802886858423
9.9,0.9427156528683909,0.9115369196189496,0.9775580957737977
10,0.9439795063691823,0.9133519411289297,0.9781828717471421
10.1,0.9452254572949947,0.9151604566425158,0.9788118586929044
10.2,0.9464535056458285,0.9168280610522972,0.9794634310939976
10.3,0.9476636514216839,0.9185233866672826,0.9801545334842219
10.4,0.94885589462256,0.9201532654566865,0.9808025792611097
10.5,0.9500302352484571,0.9218252529061848,0.9813719484212375
10.6,0.9511866732993755,0.9234691394280972,0.9820350195884612
10.7,0.9523252087753152,0.9251242772497863,0.982705756906009
10.8,0.9534458416762763,0.9266026680772426,0.9833614075896215
10.9,0.9545485720022584,0.928125691281829,0.9839624117329946
11,0.9556333997532614,0.9296115154684312,0.9845206547875873
11.1,0.9567003249292856,0.931121733844612,0.9851046350836989
11.2,0.9577493475303311,0.9326340390386745,0.9856010801061197
11.3,0.9587804675563982,0.9341014822334568,0.9861306710424194
11.4,0.9597936850074862,0.9355784056770502,0.98668552346722
11.5,0.960788999883595,0.9370079447098352,0.9872692020913066
11.6,0.9617664121847251,0.9383957587465899,0.9878906035053101
11.7,0.9627259219108766,0.9396498103550284,0.9884311999974593
11.8,0.9636675290620494,0.9408606247980532,0.9888237411191982
11.9,0.9645912336382434,0.9421188693839692,0.989235745225634
12,0.9654970356394581,0.943364648392619,0.9897193819715483
12.1,0.9663849350656941,0.9445843104201317,0.9902552094001289
12.2,0.9672549319169514,0.9457417159729259,0.990822514152405
12.3,0.9681070261932301,0.9469083045827724,0.9913345210877973
12.4,0.9689412178945298,0.9480346101821981,0.9917786945969632
12.5,0.9697575070208506,0.9490232127604028,0.9923359130244427
12.6,0.9705558935721925,0.9501570813431003,0.9927867911862321
12.7,0.9713363775485556,0.9512501189489375,0.993173512269313
12.8,0.9720989589499403,0.952209871301845,0.9936119762636937
12.9,0.9728436377763457,0.9531601604054215,0.9940982576616569
13,0.9735704140277723,0.9540894902167169,0.9944940459939255
13.1,0.9742792877042201,0.9550653352839548,0.9948746653461172
13.2,0.9749702588056892,0.9559335746663606,0.995210653411084
13.3,0.9756433273321796,0.9568994330676808,0.9956785646895168
13.4,0.9762984932836909,0.957818606747828,0.9961293413826049
13.5,0.9769357566602237,0.9586387327772232,0.9965733621116244
13.6,0.9775551174617771,0.9594316503684195,0.9969952201052921
13.7,0.9781565756883521,0.9603375649888644,0.9973878239560403
13.8,0.9787401313399484,0.9612222337021559,0.9977295829997186
13.9,0.9793057844165656,0.9619636906195295,0.9980928384748907
14,0.9798535349182043,0.9626786858290621,0.9983723438963531
14.1,0.9803833828448636,0.9633906418187888,0.9985847544197654
14.2,0.9808953281965445,0.964240959444612,0.9988815675297376
14.3,0.9813893709732466,0.9648967044023982,0.999151188626408
14.4,0.9818655111749697,0.9654727992543416,0.9993958917722403
14.5,0.9823237488017141,0.9661133031795304,0.9996294771455282
14.6,0.9827640838534795,0.9666944628308719,0.9998578989905249
14.7,0.9831865163302661,0.9672412062798394,1.000126405323689
14.8,0.9835910462320743,0.9678275438849115,1.000268198453977
14.9,0.9839776735589032,0.9684632340123444,1.0004575142221266
15,0.9843463983107534,0.9690396963142178,1.0006005557183077
15.1,0.9846972204876248,0.9695439318338094,1.0007065532725488
15.2,0.9850301400895172,0.9700142443322646,1.0008674299299174
15.3,0.9853451571164311,0.9704850142584573,1.0010014819302686
15.4,0.9856422715683659,0.9709363456859298,1.001100085136935
15.5,0.9859214834453223,0.9713816623479729,1.0012240674605468
15.6,0.9861827927472993,0.971804420701708,1.0013050693917984
15.7,0.9864261994742978,0.9721595052388502,1.0013355530516366
15.8,0.9866517036263175,0.9724089332324001,1.0013245321899709
15.9,0.9868593052033583,0.9727407956471419,1.0013676083761354
16,0.9870490042054202,0.9730082330217558,1.0014166788551095
16.1,0.9872208006325032,0.9732931939627648,1.0014502327747292
16.2,0.9873746944846076,0.9734796061950858,1.0014930123138568
16.3,0.9875106857617333,0.9736938893283567,1.0015435869429308
16.4,0.9876287744638799,0.9738492506529877,1.0014884937081154
16.5,0.9877289605910478,0.9739788184250293,1.0013958738316375
16.6,0.9878112441432365,0.9740898457652187,1.0013595686231125
16.7,0.9878756251204468,0.9742462274301664,1.0013393223529645
16.8,0.9879221035226784,0.9742852372796952,1.0012740363023167
16.9,0.9879506793499309,0.9743821284954769,1.0012295986395765
17,0.9879613526022046,0.9744444181763707,1.0011341046723115
17.1,0.9879541232794993,0.9745206677785476,1.0010722099382598
17.2,0.9879289913818154,0.9745909783388762,1.0008700400179957
17.3,0.9878859569091528,0.9745480111684944,1.0007296515515367
17.4,0.9878250198615112,0.9745297404981379,1.0006613179662722
17.5,0.9877461802388907,0.9744509401289156,1.0005904548583073
17.6,0.9876494380412915,0.9743600403920144,1.0005095381141733
17.7,0.9875347932687134,0.9742166484483958,1.0003171949483056
17.8,0.9874022459211567,0.9740271703004115,1.0000019214670863
17.9,0.9872517959986209,0.9738263956724513,0.9996805500686702
18,0.9870834435011064,0.9736001634496831,0.9994556805450805
18.1,0.9868971884286128,0.9733867630194903,0.9993657864868734
18.2,0.9866930307811408,0.9731090309429417,0.9991794822835303
18.3,0.9864709705586898,0.9729357241703183,0.9989270084756319
18.4,0.98623100776126,0.9727823629368011,0.9986006501428539
18.5,0.9859731423888514,0.9724667119739021,0.9983841758131995
18.6,0.9856973744414639,0.9722829422179383,0.9981145332928809
18.7,0.9854037039190975,0.9720370758528728,0.9978426895926702
18.8,0.9850921308217526,0.9716899299892985,0.9974892428479885
18.9,0.9847626551494285,0.9712901037503078,0.9971796516978406
19,0.9844152769021258,0.9708592804965599,0.9967986072716786
19.1,0.9840499960798441,0.9705102721470691,0.9964125738274456
19.2,0.9836668126825836,0.9700076821481454,0.9959488449471287
19.3,0.9832657267103445,0.969605896441034,0.9956015788864205
19.4,0.9828467381631263,0.9692332289939996,0.9952154848879814
19.5,0.9824098470409296,0.9687702875758534,0.9948472696689943
19.6,0.9819550533437538,0.9682917827014346,0.9944480782674934
19.7,0.9814823570715991,0.967864526926022,0.9940299872798377
19.8,0.9809917582244659,0.9674677158945162,0.9935384966373128
19.9,0.9804832568023536,0.9669526173819437,0.9931024281634846
20,0.9799568528052627,0.9663319940348005,0.9926118576511124
20.1,0.9794125462331926,0.9657333019405585,0.9919954110574569
20.2,0.9788503370861441,0.9652709512001926,0.9914162144578037
20.3,0.9782702253641167,0.9646774815699604,0.9908257401988612
20.4,0.9776722110671102,0.9640055751718614,0.9902960167296841
20.5,0.9770562941951253,0.96330390939023,0.9897540179074507
20.6,0.9764224747481611,0.9626229496269336,0.9891198548981802
20.7,0.9757707527262183,0.9620041150640739,0.9885674138561289
20.8,0.9751011281292968,0.9613640024255209,0.9879796239571363
20.9,0.9744136009573963,0.9605928385268494,0.9873489377619069
21,0.9737081712105171,0.9598960607130587,0.9866719782781728
21.1,0.9729848388886589,0.9591433540835054,0.9859746646143108
21.2,0.972243603991822,0.9583226625603984,0.9851964694204457
21.3,0.9714844665200064,0.9575204826732355,0.9844026886759882
21.4,0.9707074264732116,0.9567413755902163,0.9837044261223137
21.5,0.9699124838514384,0.9560417078626132,0.9829399758626779
21.6,0.9690996386546861,0.9552817570660357,0.9820907471399998
21.7,0.9682688908829551,0.9545070697976817,0.9812388459820476
21.8,0.9674202405362453,0.9536863666763592,0.9803070287524667
21.9,0.9665536876145564,0.9528435425503686,0.9793998840137825
22,0.965669232117889,0.951914712436257,0.9785561184008552
22.1,0.9647668740462425,0.9509878931214234,0.9777369576607293
22.2,0.9638466133996175,0.9500497716865368,0.9768919504609483
22.3,0.9629084501780136,0.9490592059887342,0.9759984362575616
22.4,0.9619523843814306,0.9481031475763737,0.9749775899088415
22.5,0.9609784160098691,0.9471611883741624,0.9740428087676727
22.6,0.9599865450633285,0.9461651326308517,0.9730581229210653
22.7,0.9589767715418093,0.9451525879592513,0.9720763263437977
22.8,0.9579490954453113,0.9441145197970511,0.9710382436025061
22.9,0.9569035167738342,0.9430699043068849,0.9700756936113164
23,0.9558400355273785,0.9420025860290887,0.9690495139033664
23.1,0.9547586517059439,0.9408889966062632,0.967997550649371
23.2,0.9536593653095304,0.9397849737776496,0.9669173881246294
23.3,0.9525421763381383,0.9386474952611916,0.9658299551962116
23.4,0.951407084791767,0.9375106963445163,0.9647205533710919
23.5,0.9502540906704173,0.9363412809510121,0.9636134598151544
23.6,0.9490831939740885,0.9352059196809217,0.96250703142737
23.7,0.947894394702781,0.9340484944313983,0.9613525520748805
23.8,0.9466876928564947,0.9328389848186429,0.9602041795435621
23.9,0.9454630884352295,0.9315510236407538,0.9590049127697886
24,0.9442205814389855,0.930247438265021,0.9577664324452129
24.1,0.9429601718677625,0.9289534011800237,0.9565865795598325
24.2,0.9416818597215609,0.9276021921169575,0.9553070612273054
24.3,0.9403856450003805,0.9263578273586726,0.9539823325921122
24.4,0.9390715277042212,0.9251018782943182,0.9526062714193559
24.5,0.937739507833083,0.9238011014820369,0.9512091095448892
24.6,0.936389585386966,0.9225237204628067,0.9499576159694333
24.7,0.9350217603658703,0.9211386930412561,0.9486222856955185
24.8,0.9336360327697958,0.9198561700011632,0.9472376816173975
24.9,0.9322324025987422,0.9184442236659384,0.9458936191877629
25,0.93081086985271,0.9169933775575142,0.9445586299962188
25.1,0.9293714345316989,0.9155807754497114,0.9431161745074677
25.2,0.927914096635709,0.9140215795288069,0.941646165999896
25.3,0.9264388561647403,0.9124275551265315,0.9402783493477697
25.4,0.9249457131187926,0.9109102212619167,0.9388860948729223
25.5,0.9234346674978664,0.9093710012667776,0.9374194785725647
25.6,0.9219057193019611,0.9077910662599936,0.9359859059060704
25.7,0.9203588685310771,0.9062533246917489,0.9344818279103715
25.8,0.9187941151852144,0.9046873558150269,0.933001258618225
25.9,0.9172114592643725,0.903011659965631,0.9315313699615029
26,0.9156109007685522,0.9012719058556373,0.930114160975919
26.1,0.9139924396977526,0.8996169921534103,0.928638349942873
26.2,0.9123560760519746,0.8978120381639478,0.9270994189433435
26.3,0.9107018098312176,0.8961212822826188,0.9254597286065409
26.4,0.9090296410354817,0.8943509859428704,0.9239407881345851
26.5,0.9073395696647673,0.8924050218680659,0.9225009228377221
26.6,0.9056315957190737,0.8905274681989647,0.9210289419668432
26.7,0.9039057191984015,0.8887460349952734,0.919500765765231
26.8,0.9021619401027503,0.886889232056976,0.9179427558874811
26.9,0.9004002584321203,0.8849255257699775,0.9163267512830191
27,0.8986206741865117,0.8830301635138382,0.9146877830239657
27.1,0.896823187365924,0.8811081669497147,0.913031790499002
27.2,0.8950077979703577,0.8791257754725792,0.911346220141419
27.3,0.8931745059998125,0.8771291397599477,0.9096866923493173
27.4,0.8913233114542883,0.8751303296995411,0.9081932413398599
27.5,0.8894542143337856,0.8731773955721643,0.906621620181939
27.6,0.8875672146383038,0.8711084292891602,0.9048809667275056
27.7,0.8856623123678433,0.8690378687715867,0.9031928839615185
27.8,0.8837395075224039,0.8670086979716789,0.9014378702431878
27.9,0.8817988001019856,0.8648724831083021,0.8997009982413993
28,0.8798401901065889,0.8626211718342349,0.8980973747597911
28.1,0.8778636775362127,0.8602923878517506,0.8965002075140298
28.2,0.8758692623908583,0.8580947235383434,0.8948828010601336
28.3,0.8738569446705249,0.8558674162399376,0.8931985693934521
28.4,0.8718267243752125,0.8534827525725885,0.8914030896788612
28.5,0.8697786015049214,0.8511430140781087,0.8896019902348012
28.6,0.8677125760596514,0.8487394029682394,0.8877918827104463
28.7,0.8656286480394026,0.8463138055002617,0.8859533557919026
28.8,0.863526817444175,0.843960999671709,0.8841114570066761
28.9,0.8614070842739686,0.8415383964044687,0.882294918218457
29,0.8592694485287834,0.8391906060054657,0.8804130604210666
29.1,0.8571139102086193,0.8367418360112755,0.878497768905685
29.2,0.8549404693134763,0.834348480597346,0.8766215637734445
29.3,0.8527491258433548,0.8319230949400045,0.8747468958610384
29.4,0.8505398797982541,0.8294802127145169,0.8727860347676618
29.5,0.8483127311781749,0.82701944945429,0.8708738940510701
29.6,0.8460676799831165,0.8245408051593235,0.8690160875195383
29.7,0.8438047262130794,0.8220368196235108,0.8671722900833573
29.8,0.8415238698680638,0.8194893823372138,0.8652864985418351
29.9,0.8392251109480691,0.8169234306148687,0.8633849435544434
30,0.8369084494530956,0.8143510937594347,0.8614626470397911
30.1,0.834573885383143,0.8117207713197895,0.8594971153642683
30.2,0.832221418738212,0.808955279568701,0.8575845318310474
30.3,0.8298510495183022,0.806181811646858,0.8555311185459631
30.4,0.8274627777234133,0.8034366257474227,0.8535092717043777
30.5,0.8250566033535458,0.8006716636201789,0.8515142982761248
30.6,0.8226325264086991,0.7978960609120282,0.8496411523259071
30.7,0.8201905468888739,0.7950330126751255,0.8476983459819087
30.8,0.81773066479407,0.7922439343255145,0.8457138291798136
30.9,0.8152528801242869,0.7894628967023442,0.8437686257828347
31,0.8127571928795253,0.786654995055054,0.8418363154886042
31.1,0.8102436030597846,0.7838504035110891,0.8398033602898545
31.2,0.8077121106650652,0.7809160021480794,0.8377496734649725
31.3,0.8051627156953671,0.7778916956655754,0.8358049998882239
31.4,0.8025954181506899,0.7748704195620615,0.8338457981973684
31.5,0.8000102180310342,0.7718133463977864,0.8318387333680346
31.6,0.7974071153363993,0.7687095586283255,0.8298928981708109
31.7,0.7947861100667859,0.7656419647038626,0.8278569967229403
31.8,0.7921472022221936,0.7625401438773818,0.8257639991222753
31.9,0.7894903918026224,0.75933195234137,0.8236946139699284
32,0.7868156788080725,0.7561475436486587,0.8215857514145147
32.1,0.7841230632385434,0.7530654919663277,0.819457034612124
32.2,0.7814125450940359,0.749722417082992,0.8172827358491317
32.3,0.7786841243745496,0.746402563433026,0.815029658906509
32.4,0.7759378010800841,0.7430367888796019,0.8128191308533257
32.5,0.7731735752106401,0.7395966070283673,0.81068206384127794
