temp,mean,conf_lower,conf_upper
0,2.374444484098028,2.07471505705536,2.6888218151771195
0.1,2.3765269145700096,2.078383399497739,2.6894358696840652
0.2,2.3785868796399807,2.0820195544187126,2.6900353067595226
0.3,2.380624379307941,2.0856235218182806,2.690620126403492
0.4,2.3826394135738904,2.0891953016964435,2.691190011742571
0.5,2.3846319824378295,2.0927348940532,2.691733361441975
0.6,2.386602085899758,2.0962422988885505,2.6922622202261257
0.7,2.388549723959675,2.099717516202496,2.6926683911305975
0.8,2.390474896617582,2.1031605459950353,2.6930615624377263
0.9,2.392377603873478,2.1065713882661696,2.693626788018845
1,2.3942578457273638,2.1099500430158975,2.6941775741163063
1.1,2.396115622179239,2.1131835297924373,2.694713920730111
1.2,2.3979509332291027,2.11612981975084,2.695210220035417
1.3,2.399763778876956,2.119047821847517,2.695654987779574
1.4,2.4015541591227985,2.121937536082467,2.696085114945028
1.5,2.4033220739666303,2.1247989624556913,2.6964978024750765
1.6,2.4050675234084515,2.127806568753915,2.696892595509704
1.7,2.406790507448262,2.131059897344878,2.6972727711128437
1.8,2.4084910260860624,2.1342806733352444,2.697638329284495
1.9,2.410169079321851,2.1374682201521176,2.6979743029540515
2,2.4118246671556296,2.1406225377954984,2.698333988431966
2.1,2.4134577895873974,2.1437436262653873,2.6986660059082888
2.2,2.4150684466171546,2.1465321472289274,2.6989833251717803
2.3,2.416656638244901,2.1492015940932907,2.699366462426652
2.4,2.418222364470637,2.151842437799494,2.6998782632380975
2.5,2.419765625294362,2.1544546783475367,2.70037423838391
2.6,2.421286420716076,2.1570383157374193,2.700853443558322
2.7,2.4227847507357794,2.1595933499691418,2.7013137388158523
2.8,2.4242606153534725,2.1623074896611074,2.7016851317203043
2.9,2.425714014569155,2.1650498950547727,2.701973053981429
3,2.4271449483828262,2.167761042810745,2.7022305793713928
3.1,2.428553416794487,2.170440932929025,2.7023648831809766
3.2,2.4299394198041373,2.173089565409612,2.7023444732408057
3.3,2.431302957411776,2.1757069402525064,2.7023771922806903
3.4,2.4326440296174052,2.178293057457709,2.7024845084619775
3.5,2.433962636421023,2.18079399447928,2.7024959887220197
3.6,2.4352587778226304,2.182992879958915,2.702494541812536
3.7,2.4365324538222275,2.185336416156398,2.70264557950281
3.8,2.437783664419813,2.1877270156268565,2.7026420774640796
3.9,2.4390124096153887,2.190086459678498,2.702795740117509
4,2.440218689408953,2.192415927339499,2.7030180131464956
4.1,2.4414025038005067,2.1947302833281435,2.7029370789897964
4.2,2.44256385279005,2.1970132809621488,2.702674108678255
4.3,2.443702736377582,2.1992649202415153,2.7025785953616177
4.4,2.444819154563104,2.2014852011662422,2.7024063354475985
4.5,2.445913107346615,2.2035140229035752,2.7024539330722344
4.6,2.4469845947281152,2.2053269497368775,2.702718955771234
4.7,2.448033616707605,2.2074971730502124,2.7028733123664503
4.8,2.449060173285084,2.2093829398167224,2.702919323313289
4.9,2.4500642644605524,2.2113504687317636,2.7029502120066553
5,2.4510458902340098,2.2137218358713624,2.702958829855529
5.1,2.4552107511779733,2.220866329131329,2.7041885906236134
5.2,2.4593306813179154,2.227439721571824,2.7053895254806477
5.3,2.4634056806538362,2.2338983623623663,2.7065524264203606
5.4,2.4674357491857353,2.2403009446120903,2.7077335895886288
5.5,2.471420886913613,2.246696403940844,2.7088562780901055
5.6,2.4753610938374697,2.2532041759086283,2.7098207883449015
5.7,2.4792563699573047,2.259665201997537,2.7110058216060557
5.8,2.4831067152731183,2.2660730996014067,2.7120513177568797
5.9,2.486912129784911,2.272426890266109,2.7130505527070676
6,2.4906726134926815,2.2789131475355173,2.714026325990826
6.1,2.494388166396431,2.285531889287344,2.7149776151512786
6.2,2.4980587884961594,2.2915600980930675,2.715841610033496
6.3,2.501684479791866,2.2975329218050033,2.7168556355190154
6.4,2.5052652402835514,2.303581537701136,2.71818078008918
6.5,2.508801069971215,2.3096489069520993,2.7194112034586873
6.6,2.512291968854858,2.3157017356255674,2.7204944509759263
6.7,2.515737936934479,2.3215524697019534,2.721194785415685
6.8,2.5191389742100783,2.327603914783219,2.722483378956546
6.9,2.522495080681657,2.333123692545643,2.7229254188632135
7,2.525806256349214,2.3387828176798617,2.723650522403699
7.1,2.5290725012127497,2.3445180470612,2.724266250343149
7.2,2.532293815272264,2.3504000396046285,2.724946203331001
7.3,2.535470198527756,2.35575302457382,2.7255925831794796
7.4,2.5386016509792277,2.3607955861839134,2.725919529085517
7.5,2.541688172626678,2.3667738535687697,2.7266467483520747
7.6,2.544729763470106,2.372643330875265,2.727050222051224
7.7,2.5477264235095136,2.3777258786025,2.7276182121041894
7.8,2.550678152744899,2.3829972678031037,2.7280388249182033
7.9,2.553584951176264,2.387880203732423,2.7286688389278857
8,2.5564468188036065,2.392901764252174,2.729700118277096
8.1,2.559263755626928,2.397773312967284,2.7304295080435486
8.2,2.5620357616462286,2.4025905683767483,2.7313260851981838
8.3,2.564762836861507,2.4075167199125933,2.7321971722164333
8.4,2.5674449812727644,2.411835171629657,2.7328791750196393
8.5,2.570082194880001,2.416162894508873,2.7334612624360357
8.6,2.5726744776832153,2.4204833658896527,2.7339467429990556
8.7,2.5752218296824085,2.424301347032938,2.734761983269401
8.8,2.57772425087758,2.428579169289316,2.7356503608820395
8.9,2.580181741268731,2.432466664063706,2.736048792586262
9,2.5825943008558596,2.436224178140007,2.736538360192515
9.1,2.5849619296389674,2.4399914795488162,2.737034114922035
9.2,2.587284627618054,2.4438332962921474,2.737487950778333
9.3,2.589562394793118,2.447504331385662,2.737963753084726
9.4,2.591795231164162,2.451457278729327,2.7380595295054366
9.5,2.5939831367311843,2.4553991580984578,2.7376343388415876
9.6,2.5961261114941845,2.4592935557145603,2.7378873833379513
9.7,2.598224155453164,2.4631032903462087,2.7376545510866697
9.8,2.6002772686081217,2.466901270243068,2.737413225700184
9.9,2.6022854509590587,2.470411418249439,2.737465129557033
10,2.6042487025059735,2.474012300330684,2.737977977701126
10.1,2.6061670232488674,2.4772942493718038,2.7384520172298155
10.2,2.60804041318774,2.4809135263704407,2.7388872481431
10.3,2.6098688723225907,2.4844171624945974,2.7391053424650784
10.4,2.6116524006534196,2.487935509308053,2.7395592462186156
10.5,2.613390998180228,2.491301223922112,2.739754765210834
10.6,2.615084664903015,2.4948627259400142,2.7396463747084425
10.7,2.61673340082178,2.498225019221693,2.7396259874781372
10.8,2.618337205936524,2.501176170442146,2.739644965850095
10.9,2.619896080247247,2.5044560546796992,2.739727831375422
11,2.621410023753948,2.5075918237191344,2.7398464149363804
11.1,2.6228790364566277,2.5106175686748666,2.739989597786961
11.2,2.624303118355286,2.5131468563928054,2.7401654285602097
11.3,2.6256822694499227,2.5156257975338217,2.740432594084857
11.4,2.627016489740538,2.5180558313767145,2.7406908692789926
11.5,2.6283057792271327,2.5204613565686773,2.740627277873247
11.6,2.629550137909705,2.5229366595693556,2.740827445209005
11.7,2.630749565788257,2.525662622202851,2.740901384912539
11.8,2.6319040628627866,2.5283301753876097,2.7408438370306896
11.9,2.633013629133295,2.5307324832075135,2.740772474543782
12,2.6340782645997827,2.5331926696634928,2.7408088582255603
12.1,2.6350979692622483,2.5355997866238926,2.7408816290126925
12.2,2.6360727431206925,2.537654495755858,2.7405492644904625
12.3,2.6370025861751154,2.5395223267596867,2.740213941354306
12.4,2.637887498425517,2.5413564077864748,2.739919564752856
12.5,2.6387274798718976,2.54313173584806,2.7398208393276455
12.6,2.639522530514256,2.5447326483919843,2.7397463002017455
12.7,2.6402726503525935,2.546611131397383,2.739644624283214
12.8,2.6409778393869097,2.5484488404233643,2.7392111796529997
12.9,2.6416380976172045,2.550308598145041,2.738817675832175
13,2.642253425043478,2.552052904760459,2.738612204572336
13.1,2.642823821665729,2.5538279878277974,2.7379354265597105
13.2,2.64334928748396,2.555468714313309,2.73731716601412
13.3,2.6438298224981684,2.5569180604265966,2.7367220595455355
13.4,2.6442654267083565,2.5584997072477385,2.7359522843578272
13.5,2.6446561001145223,2.5598483817190565,2.735200442433113
13.6,2.6450018427166677,2.560993776740421,2.7343828496042972
13.7,2.6453026545147913,2.562404451796941,2.7335126461334722
13.8,2.6455585355088926,2.5634590045543053,2.732406184897247
13.9,2.645769485698974,2.5647012283950232,2.731511812741783
14,2.645935505085033,2.5659734076969114,2.7307406466356063
14.1,2.646056593667071,2.567213083196875,2.72988856366674
14.2,2.646132751445088,2.568407758769938,2.728637129478971
14.3,2.6461639784190822,2.5695342560154226,2.727808605904328
14.4,2.6461502745890564,2.570553006830816,2.726873474212173
14.5,2.6460916399550083,2.5714938800841156,2.725882592556544
14.6,2.6459880745169393,2.5722135983517695,2.7250534902071464
14.7,2.6458395782748494,2.5731653036428805,2.72408347540365
14.8,2.6456461512287373,2.5736039754514457,2.722969595280486
14.9,2.6454077933786038,2.5744310037286877,2.721820893195483
15,2.645124504724449,2.5754793010899126,2.720606112929937
15.1,2.644796285266273,2.576461344001813,2.7190595128610466
15.2,2.644423135004076,2.5768420754830617,2.7177575734661614
15.3,2.644005053937857,2.577081050091559,2.7166421497265003
15.4,2.643542042067617,2.5772422782937827,2.7153114169881922
15.5,2.643034099393355,2.577320672576941,2.7138779990620017
15.6,2.642481225915072,2.577334770989687,2.7122589603425467
15.7,2.641883421632768,2.5773066646297154,2.7108441766617224
15.8,2.6412406865464417,2.577236353497026,2.709273587902839
15.9,2.6405530206560943,2.5771299255758677,2.707563199382233
16,2.6398204239617256,2.5771885542008772,2.7059660096071445
16.1,2.639042896463336,2.5773349356941546,2.704274129370665
16.2,2.638220438160925,2.576872141923052,2.702468384704363
16.3,2.637353049054491,2.576371550241973,2.700844643860469
16.4,2.6364407291440375,2.575962875937825,2.699635304706092
16.5,2.6354834784295615,2.5755890801812393,2.698316510839928
16.6,2.6344812969110647,2.5752168690398904,2.6968358076103667
16.7,2.6334341845885465,2.5746601258375135,2.695039316587697
16.8,2.632342141462006,2.574333096270633,2.693814767658303
16.9,2.6312051675314456,2.5737226886701268,2.6917263473699533
17,2.630023262796863,2.573475860640866,2.689850304187993
17.1,2.628796427258259,2.572761507942472,2.687810067460663
17.2,2.627524660915634,2.5721625975903626,2.6858133931719923
17.3,2.6262079637689864,2.5713931232760574,2.6837650964903923
17.4,2.6248463358183187,2.5701878099150894,2.681366301704801
17.5,2.623439777063629,2.5698199628470095,2.6793171024422295
17.6,2.6219882875049176,2.5693603378601937,2.67690770754884
17.7,2.620491867142186,2.568120820146147,2.6746438285471705
17.8,2.6189505159754316,2.5670790419232787,2.6722134031798186
17.9,2.617364234004657,2.5656699419454196,2.669867869018085
18,2.61573302122986,2.5645415181101816,2.667734289154339
18.1,2.6140568776510422,2.563359005914741,2.6653874354523728
18.2,2.612335803268204,2.5621431658003493,2.663184397321011
18.3,2.6105697980813423,2.561095406044349,2.660905802892616
18.4,2.6087588620904603,2.559569557113554,2.6587197689667077
18.5,2.606902995295557,2.558085794723876,2.656388485911003
18.6,2.605002197696632,2.5569021417399056,2.6539453809662668
18.7,2.603056469293686,2.5550495354368463,2.651813932153069
18.8,2.6010658100867174,2.5535570329726625,2.6497738434932416
18.9,2.599030220075729,2.5516854181709467,2.6473893145003866
19,2.596949699260718,2.549715331352153,2.6450148536393523
19.1,2.5948242476416863,2.547825942721624,2.642720885997414
19.2,2.592653865218634,2.5458711909951903,2.640294691818707
19.3,2.590438551991558,2.5435968086666305,2.6378072614598795
19.4,2.5881783079604626,2.541537444804109,2.6352010827746346
19.5,2.585873133125345,2.5394741336272633,2.6320715454134356
19.6,2.5835230274862058,2.537497357996066,2.6295681577389485
19.7,2.5811279910430462,2.535504014225972,2.6265521683070254
19.8,2.5786880237958636,2.53343221161189,2.6237827597220766
19.9,2.5762031257446614,2.5310705733645147,2.620428697840868
20,2.573673296889437,2.528816712161002,2.617805634143261
20.1,2.571098537230191,2.526272841085782,2.615034931319098
20.2,2.568478846766924,2.5238309286166256,2.6121449273626176
20.3,2.565814225499635,2.521189763019905,2.60904032891085
20.4,2.5631046734283247,2.518576539230329,2.606186951136406
20.5,2.5603501905529935,2.51582975309351,2.6033075435771833
20.6,2.557550776873641,2.5136400257512657,2.599878765833136
20.7,2.554706432390267,2.511184472254347,2.5966639254636856
20.8,2.551817157102871,2.5081455075481895,2.593643930161411
20.9,2.5488829510114543,2.5055319145423494,2.5907188146960523
21,2.545903814116016,2.5028992482087786,2.5876227330464463
21.1,2.5428797464165562,2.5002416900696405,2.584390192592251
21.2,2.539810747913075,2.497456604472555,2.5814568881557207
21.3,2.536696818605572,2.494493134815539,2.578540025428424
21.4,2.5335379584940485,2.4913420604205667,2.575495452516823
21.5,2.530334167578503,2.4883200130491634,2.5722508053043422
21.6,2.527085445858936,2.4853616337501165,2.5693382107250855
21.7,2.5237917933353486,2.4821617647837053,2.5660979195250735
21.8,2.520453210007738,2.4788015670355006,2.5628212264466486
21.9,2.5170696958761076,2.4751899406259454,2.559538288588149
22,2.5136412509404553,2.4716500952527527,2.556321981695447
22.1,2.510167875200781,2.4680828018052887,2.5533102057413197
22.2,2.506649568657086,2.464542950651861,2.5497243351369923
22.3,2.5030863313093694,2.4608396998583904,2.546130437767549
22.4,2.499478163157632,2.457327037950525,2.5424024645110324
22.5,2.4958250642018727,2.453478653036263,2.5387191842971064
22.6,2.492127034442092,2.4496797129876837,2.5349433765126936
22.7,2.48838407387829,2.4461205429576642,2.531383325142139
22.8,2.484596182510466,2.442250906005458,2.527724045289074
22.9,2.4807633603386217,2.438315431512331,2.5241664923174962
23,2.476885607362755,2.4342876905697044,2.5206663840833943
23.1,2.4729629235828674,2.430243533307722,2.5168269021108047
23.2,2.4689953089989585,2.4261142741276194,2.5131415110198727
23.3,2.4649827636110277,2.4216175054604183,2.5093464772137235
23.4,2.460925287419076,2.417493942314964,2.505218337265542
23.5,2.4568228804231023,2.4130093790545075,2.5012413828893516
23.6,2.452675542623108,2.4085487714001896,2.4973569223558396
23.7,2.4484832740190923,2.404419044122107,2.493098534381361
23.8,2.444246074611054,2.3997542353444787,2.488738073957694
23.9,2.439963944398996,2.395503014291114,2.4840904126341448
24,2.4356368833829154,2.3909316810855907,2.4799609228174893
24.1,2.4312648915628134,2.386449625964394,2.475808176409321
24.2,2.426847968938691,2.381808639553949,2.4717051876666876
24.3,2.422386115510546,2.3772172945096206,2.4680039605465725
24.4,2.417879331278381,2.3726885565762137,2.4643390563556062
24.5,2.413327616242193,2.367864766926723,2.4602669454774304
24.6,2.408730970401985,2.3630983775056293,2.456210690090838
24.7,2.404089393757755,2.3582714312008006,2.451769541713343
24.8,2.399402886309503,2.353196002898283,2.447717611743827
24.9,2.39467144805723,2.34815726743125,2.443486267782825
25,2.389895079000936,2.3431630732002837,2.4393067883639024
25.1,2.3850737791406207,2.3380316933702954,2.434809565450964
25.2,2.380207548476284,2.332971551438685,2.4302909260787553
25.3,2.375296387007925,2.3275904093849435,2.4263368361242295
25.4,2.370340294735546,2.3223524769007167,2.422086647981741
25.5,2.3653392716591446,2.316854549251778,2.4173534501334926
25.6,2.360293317778722,2.3113650873284843,2.4125195423120744
25.7,2.355202433094278,2.3057126560988683,2.4076549501738187
25.8,2.3500666176058123,2.3002725860675755,2.4028840439671764
25.9,2.3448858713133256,2.2947406838276287,2.3983547351730703
26,2.3396601942168176,2.289089835523205,2.393715521079252
26.1,2.3343895863162882,2.282915575554922,2.389408372391298
26.2,2.329074047611737,2.2769893297396164,2.3848468161049787
26.3,2.3237135781031646,2.2708517012891845,2.3799567603257756
26.4,2.3183081777905707,2.264682437342429,2.3748782476984345
26.5,2.312857846673956,2.2585905116423906,2.370464245623951
26.6,2.307362584753319,2.2524646778863326,2.3660343791260376
26.7,2.3018223920286616,2.246448475448182,2.361142694783006
26.8,2.296237268499982,2.2402356850929923,2.3560290065024887
26.9,2.2906072141672817,2.2339433897979024,2.3507864672747267
27,2.2849322290305594,2.227837242057464,2.3455366040162926
27.1,2.2792123130898156,2.221154853419751,2.3405061628880115
27.2,2.273447466345051,2.2144659998450713,2.335386015444774
27.3,2.2676376887962646,2.208287842086314,2.3303279167893307
27.4,2.2617829804434573,2.2016750438359023,2.32513810292975
27.5,2.255883341286628,2.194754488848863,2.3198781295815785
27.6,2.2499387713257772,2.1877893158861306,2.3142258394367046
27.7,2.243949270560906,2.1807881470280566,2.3088269071378296
27.8,2.2379148389920123,2.173725116033589,2.303323351438097
27.9,2.2318354766190978,2.16662144452083,2.2979037965899662
28,2.2257111834421615,2.1596014323187216,2.2924108135042216
28.1,2.2195419594612043,2.152542052213735,2.286962402185469
28.2,2.2133278046762253,2.145390675794565,2.281457670316015
28.3,2.2070687190872254,2.13829835500422,2.27586992355279
28.4,2.2007647026942037,2.1308315550451224,2.270302528910132
28.5,2.1944157554971606,2.123373819853841,2.264523348953434
28.6,2.1880218774960962,2.116443963926349,2.258894728844454
28.7,2.18158306869101,2.109325994860395,2.2532171603985063
28.8,2.175099329081903,2.101846914714757,2.2475042728133703
28.9,2.1685706586687745,2.09444267052518,2.241947399833445
29,2.1619970574516243,2.0867903317856866,2.2362509976036313
29.1,2.1553785254304527,2.079148937397509,2.230591691856441
29.2,2.1487150626052602,2.0713506708295046,2.2247978994494653
29.3,2.142006668976046,2.0635921944286078,2.2188902962941337
29.4,2.1352533445428103,2.0558879375241847,2.21305681543845
29.5,2.1284550893055534,2.048141845720811,2.2070485552764367
29.6,2.121611903264275,2.040475238442858,2.201078716962824
29.7,2.1147237864189754,2.0328469000162124,2.195236840056044
29.8,2.107790738769654,2.025167029956901,2.189658452705494
29.9,2.1008127603163116,2.0175095791707163,2.183437925179639
30,2.0937898510589474,2.0096427948457674,2.1774276328913515
30.1,2.086722010997562,2.001653522699798,2.1709668874200005
30.2,2.0796092401321555,1.9933602288491519,2.16446496307602
30.3,2.0724515384627273,1.9849197934017409,2.1579883323365374
30.4,2.065248905989278,1.9764368391845144,2.151496916688754
30.5,2.058001342711807,1.9681571710833508,2.1451960585286614
30.6,2.050708848630314,1.959678616147575,2.138616342737616
30.7,2.0433714237448006,1.951315324724344,2.1322592125045805
30.8,2.0359890680552657,1.9430197775995581,2.1262285342321667
30.9,2.0285617815617094,1.9345382301893927,2.120388911311193
31,2.0210895642641313,1.9260651106132318,2.1143161730805855
31.1,2.013572416162532,1.9175012759357042,2.107690477123782
31.2,2.006010337256911,1.9089893619153617,2.101236928210185
31.3,1.9984033275472692,1.9002933103005653,2.094622669173683
31.4,1.990751387033606,1.891399661357467,2.0878588969593173
31.5,1.983054515715921,1.882600648200401,2.0812725532607437
31.6,1.9753127135942141,1.873911093205233,2.07486418147296
31.7,1.9675259806684868,1.8649444991758815,2.068138704234873
31.8,1.9596943169387377,1.855812821186136,2.0614135977278227
31.9,1.9518177224049675,1.8466311186996596,2.054874161689199
32,1.9438961970671755,1.8373994774132358,2.0483043590190406
32.1,1.9359297409253622,1.8281296163478873,2.0418620689435105
32.2,1.9279183539795275,1.8188764258719192,2.035223158077308
32.3,1.9198620362296714,1.8094970277581266,2.028623865804148
32.4,1.9117607876757943,1.800313587156217,2.02192064091501
32.5,1.9036146083178953,1.7908063934526033,2.01503708901288
32.6,1.8954234981559748,1.7814283595734663,2.00798346894235
32.7,1.8871874571900333,1.771902426233571,2.0009150882603164
32.8,1.8789064854200703,1.762234411413806,1.99397590790575
32.9,1.8705805828460862,1.7525093937764957,1.987173431451422
33,1.86220974946808,1.7427516018941205,1.98023990684168
33.1,1.8537939852860528,1.7328360364036173,1.9733003002351883
