temp,mean,conf_lower,conf_upper
0,0.007876120082805135,0.005727193699828511,0.009794500204594691
0.1,0.007987633339710577,0.005822441167183421,0.009913609706310443
0.2,0.008101155017713104,0.0059196643365969385,0.010038130312071493
0.3,0.008216714534516233,0.006018897319989566,0.010159223066467604
0.4,0.008334341566833098,0.006120174608902008,0.01028217411660973
0.5,0.008454066048442583,0.0062235310724097145,0.010406971622137632
0.6,0.008575918168127708,0.006329001954813001,0.010533737241673096
0.7,0.008699928367496107,0.006436622873099613,0.010665200790723571
0.8,0.008826127338682469,0.006546429814176675,0.01080293428332653
0.9,0.008954546021930156,0.006658889670834942,0.010943507268420005
1,0.00908521560305433,0.00677397655284201,0.011086205933624606
1.1,0.009218167510783023,0.006891402331467627,0.0112311903734583
1.2,0.009353433413977853,0.007011205893361104,0.011372601141066715
1.3,0.009491045218733065,0.007133426508023249,0.0115154459839196
1.4,0.00963103506535224,0.0072581038235319025,0.0116648859428543
1.5,0.0097734353252036,0.007385277861980334,0.01181490650618773
1.6,0.009918278597451948,0.0075149890146231696,0.011963649992791453
1.7,0.01006559770566887,0.0076472780367278234,0.012114421237181918
1.8,0.010215425694320487,0.007782186042127613,0.012267493389442793
1.9,0.010367795825132232,0.007919754497472785,0.012422895290924468
2,0.010522741573331822,0.008060025216177666,0.01258065600682462
2.1,0.010680296623769781,0.00820214482447902,0.0127408048248815
2.2,0.01084049486691854,0.008345231583438813,0.0129033712539853
2.3,0.011003370394750085,0.0084910395087408,0.013068385022705947
2.4,0.011168957496492129,0.00863960925473144,0.013235876077735617
2.5,0.01133729065426485,0.008790981771629824,0.013405874582246404
2.6,0.011508404538596792,0.008945198299041541,0.013578410914159816
2.7,0.011682334003822192,0.009102300359221533,0.013753772521575601
2.8,0.01185911408336058,0.009262329750085837,0.013932322670811285
2.9,0.012038779984876975,0.0094249500733717545,0.014114341926989396
3,0.01222136708532804,0.009590631261104694,0.014300752958558665
3.1,0.01240691092589032,0.009759729701529735,0.01448739881346237
3.2,0.012595447206775093,0.009932021118086326,0.014676017452537897
3.3,0.012787011781929977,0.01010745774927324,0.014867395143457666
3.4,0.012981640653626732,0.010287278925607296,0.015061563859964978
3.5,0.013179369966940257,0.010470868999806404,0.01525917375078533
3.6,0.013380236004115285,0.010652462288164202,0.015464455471423092
3.7,0.01358427517882629,0.010840429143768341,0.015676207753462228
3.8,0.013791524030330127,0.011031748297585358,0.015891130917988293
3.9,0.014002019217511673,0.011226571779674848,0.016109261365456387
4,0.014215797512826953,0.01142517278554471,0.016326060263772122
4.1,0.014485098522079186,0.01166725318920508,0.01660790703852611
4.2,0.014758809848858797,0.011913156101521645,0.016894053550744834
4.3,0.015036987212908573,0.0121641307527703,0.017184552491292276
4.4,0.015319686679102214,0.01241928861720992,0.017480190471413568
4.5,0.015606964652396037,0.01267910754909043,0.017783622609173936
4.6,0.01589887787263285,0.012941412011840705,0.018090796793353903
4.7,0.01619548340920145,0.01320480627667132,0.01840254364187298
4.8,0.016496838655548844,0.013473383427817544,0.01871862809709076
4.9,0.016803001323544443,0.013746843068009901,0.019039035743612272
5,0.017114029437699123,0.014027125020532591,0.01936403457270592
5.1,0.017429981329233513,0.014319305567204408,0.019692416396008945
5.2,0.0177509156300003,0.014616940325478231,0.020025567139049683
5.3,0.01807689126625647,0.014919856867066426,0.02035683742770222
5.4,0.018407967452284787,0.01522812451971731,0.02069312230880514
5.5,0.018744203683867113,0.015534979950355344,0.021036772657010278
5.6,0.019085659731603807,0.015850271800166266,0.02138539741533218
5.7,0.019432395634082385,0.016172338467525006,0.021739052625374268
5.8,0.0197844716908937,0.016504983902276886,0.022102231514444303
5.9,0.02014194845549054,0.016829562858778218,0.022472158998977986
6,0.020504886727894925,0.01715709845537764,0.02284704489710155
6.1,0.020873347547244056,0.017497796299862742,0.02322734503778866
6.2,0.021247392184180428,0.017836830748991082,0.023613119028759073
6.3,0.02162708213308179,0.01819090181639856,0.024001345457631856
6.4,0.022012479104126122,0.018556611760643327,0.024391467964546706
6.5,0.022403645015196663,0.018929185229960833,0.02479650366948974
6.6,0.022800641983617042,0.019307997115167917,0.02520718434547279
6.7,0.023203532317719596,0.01969311988867357,0.025623566808388523
6.8,0.02361237850824271,0.02008571565898343,0.026045708053448045
6.9,0.02402724321955245,0.020484774764398,0.026473665248790825
7,0.024448189280689606,0.020882582976851357,0.026908313461132698
7.1,0.024875279676233517,0.021288518046269828,0.02734889459201951
7.2,0.025308577536984598,0.021703961820881197,0.027795600243215077
7.3,0.025748146130458418,0.02212329054627182,0.028246742738570148
7.4,0.02619404885118696,0.022548589492745658,0.028697625369646203
7.5,0.026646349210826547,0.022987093355570747,0.02915391864670277
7.6,0.027105110828062384,0.02342897043183677,0.029612614522070417
7.7,0.027570397418308593,0.02387763572043946,0.03007512299975876
7.8,0.028042272783199006,0.02433362872659032,0.03054299144736027
7.9,0.028520800799857936,0.024796791777402495,0.03102084787288518
8,0.029006045409952524,0.025269814229555338,0.03150873093749348
8.1,0.029498070608512717,0.02574541524721579,0.031998476270208395
8.2,0.029996940432517244,0.026228898859222607,0.03250657434672039
8.3,0.030502718949238256,0.026721331769600745,0.03301827243058732
8.4,0.0310154702443317,0.027226605192715598,0.03352939482739102
8.5,0.03153525840967435,0.027747928586613346,0.03404591662733926
8.6,0.03206214753092944,0.02824968623805764,0.03456871098864098
8.7,0.0325962016748391,0.028756688771220777,0.03510103446440286
8.8,0.03313748487623278,0.02927074367233947,0.03564270845080727
8.9,0.03368606112473652,0.029818319296080774,0.03619614259470713
9,0.03424199435118213,0.03037567049451287,0.03675972023101537
9.1,0.03480534841369518,0.030926594716878492,0.03733448407934424
9.2,0.03537618708345844,0.03150117810573631,0.03790954417600487
9.3,0.03595457403013508,0.032075819134184225,0.03849066872289393
9.4,0.03654057280693673,0.03265194986660386,0.039084143718976366
9.5,0.037134246835330696,0.03324410880553708,0.03968120330618416
9.6,0.03773565938936233,0.033840939298825604,0.04027640133543889
9.7,0.03834487357958688,0.03442572442272598,0.04087873628073227
9.8,0.03896195233659243,0.03501655880207859,0.04148851377659599
9.9,0.039586958394095255,0.035617204409108275,0.04210579482641992
10,0.04021995427159719,0.036243122483354824,0.04273064032007394
10.1,0.04086100225658128,0.03687749509814833,0.043362877428806075
10.2,0.04151016438623372,0.03751917109213975,0.044002692929930934
10.3,0.04216750242867052,0.03816994168911074,0.04465114019983404
10.4,0.042833077863647394,0.03882988383596766,0.04530687961215523
10.5,0.04350695186273912,0.03950067390927948,0.045973319312737675
10.6,0.044189185268958875,0.0401811960792237,0.046654683447827666
10.7,0.044879838575804194,0.0408686083203747,0.04734443986372766
10.8,0.04557897190570373,0.0415652757016235,0.048039666385400526
10.9,0.04628664498783444,0.042272362818621706,0.04874873107990331
11,0.04700291713530097,0.04297958132872599,0.049456256435787216
11.1,0.04772784722163372,0.043696654948282745,0.050165018957658514
11.2,0.04846149365659279,0.044435522846036815,0.0508854479992441
11.3,0.04920391436124811,0.04517456547803326,0.051626874545097984
11.4,0.04995516674229866,0.04592418689512211,0.05237931464044287
11.5,0.05071530766561962,0.04667747531435767,0.05314102432051191
11.6,0.05148439342898702,0.04745556166401975,0.05391625443945896
11.7,0.05226247973396725,0.0482320574609464,0.05470317648498055
11.8,0.05304962165693004,0.04900700907756393,0.05549297347807164
11.9,0.053845873619149234,0.04978306790233282,0.056281002317049
12,0.05465128935597146,0.050581742916865194,0.057092517583172166
12.1,0.055465921884999526,0.05139687690025778,0.05791620359124097
12.2,0.056289823473270564,0.052219021807803204,0.058749090793039895
12.3,0.057123045603383785,0.05305290877319077,0.05959118739380904
12.4,0.05796563893853959,0.05390345231560868,0.06044295537716085
12.5,0.05881765328645828,0.054753840746607454,0.06129938390984924
12.6,0.05967913756212725,0.05560462386801269,0.062159797379431
12.7,0.060550139749346595,0.056470167321799616,0.06302401464424542
12.8,0.06143070686102532,0.057347858723985595,0.06389179772138855
12.9,0.062320884898183715,0.058236867130311495,0.06476767266797862
13,0.06322071880762378,0.05914327139433937,0.06565274984605814
13.1,0.06413025243821407,0.060057298455486574,0.06655316557268257
13.2,0.0650495284957519,0.06097000817290391,0.06745475133919211
13.3,0.06597858849635048,0.06189509472496878,0.06837026875029462
13.4,0.06691747271829883,0.06282831101513986,0.06931594309796646
13.5,0.06786622015235877,0.06378855517235177,0.07027243084786094
13.6,0.0688248684504309,0.06476267543722346,0.07121178223690826
13.7,0.06979345387255463,0.06574228324395362,0.0721846958833289
13.8,0.07077201123218398,0.0667252419553671,0.07317954313021163
13.9,0.07176057383967875,0.06771307664821066,0.07418747768639823
14,0.07275917344397778,0.06870556883691317,0.07518170431532245
14.1,0.07376784017237586,0.06971326517172058,0.07620260246279359
14.2,0.0747866024683686,0.07072882631655765,0.07723233257836853
14.3,0.07581548702750426,0.07174813816799236,0.07827048131231737
14.4,0.07685451873117913,0.0727888736630342,0.07931329460458529
14.5,0.07790372057833429,0.07384665203287272,0.0803736831602548
14.6,0.07896311361498402,0.07491759723705527,0.08143568797921108
14.7,0.08003271686153013,0.07598982551636324,0.08250942438809646
14.8,0.08111254723779915,0.07706532889967203,0.08360289186613423
14.9,0.08220261948574462,0.07814928652178409,0.08469301200305948
15,0.08330294608976715,0.0792448367777487,0.08580094132399305
15.1,0.08441353719458398,0.080386221292479,0.08689644115645877
15.2,0.08553440052060163,0.08153451846776938,0.08801381707885436
15.3,0.08666554127673681,0.08267119893084102,0.08914947345374798
15.4,0.087806962070621275,0.08380234801852887,0.0902893176105588
15.5,0.08895866281615529,0.08496621951039349,0.09143853507881827
15.6,0.09012064063833936,0.08614974941418388,0.09259482878392061
15.7,0.09129288977534988,0.0873139455957654,0.09376332525368437
15.8,0.092475401477805,0.08848236498660363,0.09494106499172983
15.9,0.09366816390516786,0.089688585255523,0.09615484452271407
16,0.09487116201925871,0.09091311318268372,0.09737754404737292
16.1,0.09608437747482211,0.09213999845171131,0.09859513043980625
16.2,0.09730778850711631,0.09337452891740104,0.09983482815832044
16.3,0.09854136981649708,0.09462574384093217,0.10108551475053754
16.4,0.09978509244995083,0.09588710584644614,0.10234168082222868
16.5,0.10103892367957115,0.09716386844003252,0.1035955654044145
16.6,0.10230282687793503,0.09841480755783036,0.10485028737638094
16.7,0.10357676139038335,0.09968152908457703,0.1061219471905542
16.8,0.10486068240418671,0.10095268625409126,0.10740234397861505
16.9,0.10615454081458264,0.10226145796284239,0.1086952403424481
17,0.1074582830877105,0.1035841516326144,0.10999904475214717
17.1,0.10877185112042789,0.10489844456066709,0.11134193575717943
17.2,0.11009518209704564,0.10624723844645664,0.11266740934837038
17.3,0.11142820834300238,0.1075758448029675,0.11402856871882763
17.4,0.11277085717550334,0.1089196233939286,0.11537431921843155
17.5,0.11412305075119394,0.1102762130620833,0.11675333115993786
17.6,0.1154847059108934,0.11162976437000863,0.1181180639467964
17.7,0.11685573402148267,0.11300384289073455,0.11949252646078737
17.8,0.11823604081501558,0.11437664840200741,0.12088126296056632
17.9,0.11962552622513768,0.11574105659026915,0.12227093466013805
18,0.12102408422094124,0.11714852706024173,0.12366106675380344
18.1,0.12243160263835279,0.11854769305997184,0.12505900342756032
18.2,0.12384796300921089,0.11995834458801734,0.1264647321796645
18.3,0.12527304038817988,0.12140516938539433,0.12787910110886486
18.4,0.12670670317766153,0.1228693271046837,0.12930687312414937
18.5,0.12814881295091687,0.12433178797901093,0.13076498596810246
18.6,0.1295992242735789,0.125793646984975,0.13222046072731064
18.7,0.1310577845238106,0.12727651324452355,0.13367488683773357
18.8,0.13252433371134925,0.12877030924814015,0.135123225006234
18.9,0.13399870429569802,0.13025407163837943,0.1365936676244004
19,0.135480721003789,0.13173847615508527,0.13805821646032568
19.1,0.1369702006474086,0.13325554327500722,0.13953471403377832
19.2,0.13846695194075648,0.1347865473947862,0.1410193287899805
19.3,0.13997077531849852,0.13630440675891564,0.14252706840570928
19.4,0.141481462754707,0.1378305964911713,0.1440358110282902
19.5,0.14299879758314343,0.1393607608765458,0.1455515314456564
19.6,0.14452255431930303,0.14091549170968792,0.14707346332407994
19.7,0.1460524984847445,0.14246403618993386,0.14859913119955934
19.8,0.14758838643420502,0.14401007872903032,0.15012795423957867
19.9,0.14912996518604427,0.14556325461119052,0.15164745737991078
20,0.15067697225662072,0.14714108542221377,0.1531845185849479
20.1,0.1522291354991911,0.14871731790131293,0.15472768875202408
20.2,0.15378617294799551,0.15029193375093347,0.156279195632279
20.3,0.1553477926682074,0.15187411955519206,0.15783737420212213
20.4,0.15691369261244598,0.1534736987566344,0.15940974552830742
20.5,0.15848356048462758,0.15506919477398712,0.16096567903766182
20.6,0.1600570736119022,0.15666330768101092,0.1625162749867593
20.7,0.1616338988255147,0.15827554052848408,0.16406349782235619
20.8,0.16321369235142666,0.15989129681332087,0.16561968056603218
20.9,0.16479609971156578,0.16151853697167096,0.16717183952666537
21,0.16638075563662794,0.16315084496904986,0.1687127962033032
21.1,0.1679672839913493,0.16476808384832667,0.1702730020824725
21.2,0.16955529771322453,0.16637592354756903,0.17182433018597582
21.3,0.17114439876565804,0.16799479183445815,0.17338427673916598
21.4,0.17273417810654496,0.1696164398632426,0.17496727595199407
21.5,0.17432421567334141,0.17127095762391906,0.17655070353296642
21.6,0.1759140803856455,0.1729158170560729,0.17810618787659868
21.7,0.17750333016637365,0.17454539508047612,0.17968842296183427
21.8,0.17909151198260595,0.17616391270018475,0.18128672718796088
21.9,0.1806781619071613,0.1777919172193878,0.1828787155981922
22,0.18226280520202354,0.17941364249729017,0.1844332912956475
22.1,0.183844956424663,0.18100878897360648,0.1860029819388581
22.2,0.1854241195583514,0.18261863774959963,0.18755710904077239
22.3,0.18699978816752522,0.18419879298761863,0.18911288120685976
22.4,0.18857144557922145,0.18578881086029103,0.19068850074542606
22.5,0.1901385650916263,0.1873855030078945,0.19227045038508087
22.6,0.19170061021068424,0.1889637802750192,0.19382052682111195
22.7,0.1932570349157318,0.19056313513450063,0.19537177458265098
22.8,0.19480728395503075,0.19213454242136677,0.19692642518477682
22.9,0.19635079317202336,0.1937001425047326,0.198450225223896
23,0.19788698986309533,0.1952441850906844,0.19996993841336577
23.1,0.1994152931675128,0.19680908315106413,0.20147518767989164
23.2,0.200935114490147,0.1983432809903225,0.20297319446659667
23.3,0.20244585795750142,0.19984547823631588,0.204488382530651
23.4,0.20394692090742828,0.20135948451870478,0.2059670089230754
23.5,0.2054376944128492,0.20286782118400803,0.20744805779359438
23.6,0.20691756383962515,0.20438661737149721,0.20893097227125673
23.7,0.2083859094386252,0.20584332000849287,0.21039916392910446
23.8,0.20984210697188171,0.20726769578215826,0.21185101234235904
23.9,0.21128552837255582,0.20872306551730585,0.21331501094433167
24,0.21271554243830984,0.21017242648493695,0.21475970221981677
24.1,0.2141315155574699,0.21159097546665234,0.21618647552898593
24.2,0.2155328124672114,0.21300469357959362,0.21761047930007502
24.3,0.21691879704280753,0.2143982883969582,0.21902405682029627
24.4,0.21828883311676406,0.2157731043045309,0.22040536780184727
24.5,0.21964228532650365,0.21712546176005654,0.2217492957567612
24.6,0.2209785199890062,0.21842742227064033,0.22308691722425875
24.7,0.2222969060006506,0.2197209676787929,0.2244172051156859
24.8,0.22359681576025586,0.2210087497793306,0.2257523682528107
24.9,0.22487762611310408,0.2222849709271973,0.22706000563116974
25,0.2261387193135482,0.22353445643686692,0.22833194935475754
25.1,0.2273794840035384,0.22474927471578054,0.22959649474704252
25.2,0.22859931620424037,0.2259573599347382,0.23083826083952486
25.3,0.22979762031768278,0.22714372738858096,0.2320744260318193
25.4,0.2309738101351703,0.22829911039064937,0.23328185823552292
25.5,0.23212730984903868,0.22943920011264868,0.23445918982897013
25.6,0.23325755506409765,0.23055022389961916,0.2356141179534938
25.7,0.23436399380499015,0.23168335341351565,0.23674304224959009
25.8,0.23544608751551147,0.23276219564191653,0.23786377940477132
25.9,0.2365033120457941,0.23377872849353637,0.2389477816033389
26,0.23753515862317803,0.2347939457662771,0.23996228989793372
26.1,0.23854113480244313,0.2357860065242579,0.24096126302592424
26.2,0.23952076539104655,0.23673884877071993,0.2419582405628738
26.3,0.24047359334493573,0.237705698036849,0.24291843110674982
26.4,0.24139918063047974,0.23865191791607981,0.243847936337511
26.5,0.24229710904809304,0.23955425221571514,0.244779510321709
26.6,0.24316698101311696,0.24041375982253338,0.24567322460152868
26.7,0.24400842028962688,0.24125098974907572,0.24651449699161926
26.8,0.24482107267290348,0.24208652219279486,0.24731574642612447
26.9,0.24560460661642924,0.2428599456820894,0.2480954935168871
27,0.2463587137994528,0.24359921158469108,0.24885103490285077
27.1,0.24708310963132268,0.24433998775450272,0.24959787029006372
27.2,0.24777753368904365,0.24502201894287262,0.25028874570665854
27.3,0.2484417500847373,0.24569342085663892,0.2509615044608898
27.4,0.2490755477599883,0.2463248145422246,0.25160811700065255
27.5,0.2496787407043751,0.24695343854654894,0.2522036511421823
27.6,0.25025116809580517,0.24749368934485744,0.2527944750921114
27.7,0.2507926943606721,0.24797925963427964,0.2533605264912189
27.8,0.2513032091522282,0.24846957403300318,0.25390400591163964
27.9,0.2517826272459779,0.24892430804565716,0.2544189010911454
28,0.25223088835135093,0.24935590191471357,0.25491165378197655
28.1,0.2526479568393503,0.24974101095025125,0.25535139916238075
28.2,0.2530338213863351,0.25007101499393786,0.255785474240303
28.3,0.25338849453459145,0.25034639792673996,0.25621663632834796
28.4,0.2537120121707912,0.2505996682649868,0.25658032935995445
28.5,0.25400443292396835,0.25083723251299694,0.2569298859603593
28.6,0.2542658374850802,0.25104602136514637,0.2572738661073106
28.7,0.2544963278507356,0.25121882740488954,0.25757113013340555
28.8,0.2546960264941216,0.25136171120193673,0.2578403397081704
28.9,0.25486507546662296,0.2514502698775959,0.2580896595065646
29,0.25500363543407695,0.25151623718791605,0.25830988954039524
29.1,0.2551118846520175,0.2515621830564852,0.25852678437316196
29.2,0.25519001788467305,0.25150432285175933,0.2587181430931169
29.3,0.2552382452728479,0.25146253843821637,0.2588981767953647
29.4,0.2552567911561599,0.25138947305234705,0.2590187299619506
29.5,0.25524589285542626,0.25126637331837387,0.2591053521872233
29.6,0.25520579942126165,0.25110340938480663,0.2591618081676173
29.7,0.25513677035518545,0.25095381607482786,0.2591936161236482
29.8,0.25503907430975326,0.25075561575313954,0.25922782093661606
29.9,0.25491298777437144,0.2505483114394697,0.2592231633602077
30,0.2547587937535841,0.2502511618703524,0.2592459252736832
30.1,0.254576780444697,0.24993051175337522,0.25925779758819734
30.2,0.2543672399216317,0.2495461773308747,0.25923121044297887
30.3,0.25413046683190554,0.24912290557044375,0.25918193383375504
30.4,0.2538667571135749,0.2487298089523568,0.25910618576541455
30.5,0.25357640673888443,0.24831929180812068,0.25902615777564175
30.6,0.2532597104912413,0.24782264614225077,0.2588738070634017
30.7,0.2529169607819499,0.2473263025271016,0.25870058083444974
30.8,0.2525484465129296,0.24684107161373875,0.2585016728425933
