temp,mean,conf_lower,conf_upper
0,2.6594810748482782,2.354381759919984,2.9516129741125594
0.1,2.6619814058257516,2.3581493867282166,2.9527545107205198
0.2,2.6644594461198197,2.36213227173794,2.953875591056867
0.3,2.666915195730482,2.365943743752748,2.9549812374788482
0.4,2.669348654657739,2.3696929606432535,2.956071449986463
0.5,2.67175982290159,2.3734147891321418,2.9571462285797114
0.6,2.674148700462036,2.3771291289823404,2.958205573258594
0.7,2.6765152873390763,2.380980701783921,2.9592494840231103
0.8,2.6788595835327107,2.384959696504458,2.9602321822598094
0.9,2.6811815890429394,2.3888866304069385,2.9611842271361186
1,2.6834813038697627,2.392444534843219,2.962121177058513
1.1,2.6857587280131807,2.395973868478163,2.9630430320269925
1.2,2.688013861473193,2.39947463131177,2.9639944428332985
1.3,2.6902467042498,2.402946823344042,2.964920293015977
1.4,2.6924572563430003,2.4063945501839425,2.9657042670390896
1.5,2.6946455177527957,2.4098208419901908,2.966565678880473
1.6,2.6968114884791854,2.413218458948988,2.96741199516622
1.7,2.6989551685221698,2.416583483278508,2.9683316066327814
1.8,2.7010765578817484,2.4199093075068685,2.9693380612808293
1.9,2.7031756565579217,2.423206578528288,2.970328099987878
2,2.7052524645506892,2.426491229912809,2.9711757706163127
2.1,2.707306981860051,2.430003444118426,2.971867899115642
2.2,2.709339208486007,2.4334850349091983,2.972528944614937
2.3,2.711349144428558,2.4369360022851247,2.973175977836723
2.4,2.7133367896877028,2.440361694604108,2.973808998781002
2.5,2.7153021442634424,2.443771326663979,2.974492838915551
2.6,2.7172452081557763,2.4471501415029957,2.975290977202992
2.7,2.7191659813647044,2.450498139121157,2.976084996199374
2.8,2.7210644638902277,2.453815319518463,2.976741646716225
2.9,2.7229406557323443,2.457101682694914,2.9774727698915084
3,2.724794556891056,2.46035722865051,2.978188584782854
3.1,2.7297952188460037,2.4683187471229004,2.980296835600119
3.2,2.7347512994341394,2.4761429658540113,2.982452028894998
3.3,2.739662798655465,2.4841975243473358,2.984537201746032
3.4,2.7445297165099785,2.492107114705144,2.986587604696357
3.5,2.749352052997681,2.4998084323169474,2.9885936337986636
3.6,2.7541298081185723,2.5074425974674783,2.990467844964029
3.7,2.758862981872652,2.515017363746547,2.9923090686722507
3.8,2.763551574259922,2.5225327311541523,2.9941122196518997
3.9,2.7681955852803792,2.5299886996902954,2.9957416276682594
4,2.772795014934026,2.5373852693549743,2.9973217828684593
4.1,2.7773498632208615,2.544722440148191,2.999119444348592
4.2,2.7818601301408856,2.5518807497418665,3.001013821346863
4.3,2.7863258156940995,2.5588143985548104,3.0028781486903977
4.4,2.790746919880501,2.5656922332725833,3.004869565922321
4.5,2.795123442700092,2.5725142538951853,3.006742075725593
4.6,2.7994553841528713,2.579291924294024,3.008501089359299
4.7,2.80374274423884,2.586014290858187,3.0102216062821805
4.8,2.8079855229579973,2.592680666550569,3.0119428286434413
4.9,2.812183720310343,2.5992910513711696,3.013863337422573
5,2.816337336295878,2.6060559981862648,3.0155224207895666
5.1,2.820446370914602,2.6127903319258023,3.0171300545060484
5.2,2.8245108241665147,2.6194454650056924,3.018849500758768
5.3,2.828530696051616,2.6259998053953604,3.0204223154443692
5.4,2.832505986569906,2.6325042740342077,3.021844609373845
5.5,2.8364366957213853,2.6387355157264043,3.0233055668506053
5.6,2.840322823506053,2.64477023811843,3.024801351142208
5.7,2.8441643699239094,2.651216215998014,3.026182014746717
5.8,2.847961334974955,2.657601527698919,3.027505357650642
5.9,2.851713718659189,2.663889781537538,3.028952065631198
6,2.8554215209766127,2.670015830653551,3.030367986415083
6.1,2.8590847419272243,2.6758844937768944,3.031742193881626
6.2,2.862703381511025,2.6821234124137403,3.03285970614911
6.3,2.866277439728014,2.6881611055609196,3.0341469719210408
6.4,2.8698069165781925,2.6939915719692134,3.0354033492347394
6.5,2.8732918120615603,2.699594216334229,3.0366283331559423
6.6,2.876732126178116,2.70516165964556,3.037820691173044
6.7,2.880127858927861,2.7108386234932755,3.038982182961477
6.8,2.8834790103107943,2.7166152968449535,3.0400670299077897
6.9,2.886785580326917,2.722324733365178,3.04110579117941
7,2.890047568976228,2.7276431729745054,3.042114025182813
7.1,2.8932649762587284,2.73290509695713,3.0430917319179986
7.2,2.8964378021744173,2.738176766988053,3.0440835621767075
7.3,2.8995660467232947,2.743616697047135,3.045032212476338
7.4,2.9026497099053614,2.7488705601118157,3.045822719679382
7.5,2.9056887917206167,2.7538318922377485,3.0466752774835077
7.6,2.908683292169061,2.7587376876175793,3.0475084691762153
7.7,2.9116332112506944,2.7635840284694817,3.048418309007018
7.8,2.914538548965516,2.768364307321573,3.0494475523379734
7.9,2.9173993053135265,2.773340907861334,3.0502680506976345
8,2.920215480294726,2.77851796479501,3.0510326822640517
8.1,2.9229870739091144,2.78339066170338,3.0517884947081813
8.2,2.9257140861566917,2.7883270214254647,3.0523587389314057
8.3,2.928396517037457,2.793038325607464,3.0530760390583715
8.4,2.9310343665514123,2.7976936044518554,3.0535726839152444
8.5,2.9336276346985555,2.8026638357962366,3.054093134586986
8.6,2.9361763214788885,2.8072042709695877,3.054683258311088
8.7,2.93868042689241,2.8114169747898368,3.055326438445193
8.8,2.941139950939119,2.8158965197007717,3.0557828622300653
8.9,2.943554893619018,2.8204673990591194,3.0564521220133702
9,2.9459252549321056,2.8246654727022937,3.0573067985037223
9.1,2.9482510348783824,2.8294519553335498,3.0582222115818043
9.2,2.950532233457848,2.834088595128634,3.05924198956083
9.3,2.952768850670502,2.838359489582158,3.059938822593188
9.4,2.9549608865163446,2.8427826892888755,3.0606230585963807
9.5,2.9571083409953767,2.8471215940150576,3.061184442987527
9.6,2.9592112141075972,2.851193457997442,3.0616493464333696
9.7,2.9612695058530063,2.8546408892721744,3.0620528369017386
9.8,2.9632832162316047,2.858234949557364,3.0624206980625974
9.9,2.9652523452433917,2.8616448764070004,3.0629347164445893
10,2.967176892888368,2.865101677840454,3.0632139188889904
10.1,2.9690568591665323,2.868704221219403,3.0634176880058055
10.2,2.970892244077886,2.871917692721542,3.0641229687455804
10.3,2.9726830476224277,2.875292439541726,3.0645503775336764
10.4,2.9744292698001598,2.878262696034702,3.0652381088310845
10.5,2.9761309106110794,2.881243122333111,3.0656319541148687
10.6,2.977787970055188,2.884281107094647,3.0663240552223527
10.7,2.979400448132486,2.8874063394359464,3.0666926909522925
10.8,2.980968344842972,2.890419122276726,3.067103677228091
10.9,2.982491660186647,2.8933934184741794,3.067885385137781
11,2.983970394163511,2.8960997358377103,3.0680799367933886
11.1,2.985404546773564,2.8989001963731726,3.068174005018927
11.2,2.9867941180168063,2.9018257788708715,3.068558137513042
11.3,2.988139107893236,2.904340079746346,3.0687027191312777
11.4,2.9894395164028555,2.9073404902904247,3.0687699632116088
11.5,2.9906953435456636,2.909776321678396,3.068866637727841
11.6,2.991906589321661,2.9121481640678866,3.0689146178440785
11.7,2.993073253730847,2.914479836692981,3.0688904699803574
11.8,2.9941953367732212,2.916947248789947,3.0684672305090235
11.9,2.9952728384487846,2.919557466021164,3.0681825218621492
12,2.9963057587575372,2.9222014166589148,3.068046657216443
12.1,2.997294097699478,2.924222749902352,3.0679929883229775
12.2,2.9982378552746085,2.9263910182260484,3.067681161729782
12.3,2.999137031482926,2.9288872609196988,3.067532603783114
12.4,2.9999916263244337,2.930800279860433,3.0672498079755144
12.5,3.0008016397991306,2.932490673498939,3.066788630154454
12.6,3.001567071907016,2.934295993708841,3.0662076333123114
12.7,3.0022879226480903,2.9357884730510007,3.065843116667917
12.8,3.0029641920223518,2.9370254901863686,3.065452246444946
12.9,3.0035958800298044,2.9383938492293247,3.065096128036287
13,3.0041829866704446,2.940023861026213,3.064988340010718
13.1,3.004725511944274,2.941370516088807,3.0648643653502443
13.2,3.0052234558512922,2.942500436461023,3.064601054793145
13.3,3.005676818391498,2.9438864205246715,3.064334778059516
13.4,3.0060855995648943,2.9451615647155025,3.0639846442449965
13.5,3.006449799371479,2.946188845994109,3.0634427606798216
13.6,3.0067694178112525,2.9468504279914933,3.063037330193988
13.7,3.0070444548842152,2.9478236920903207,3.062609317945652
13.8,3.0072749105903647,2.9486000093176625,3.062178176795041
13.9,3.0074607849297053,2.9496113190599997,3.061538983347224
14,3.0076020779022343,2.9510761147073197,3.0607985853718813
14.1,3.007698789507951,2.95193149250069,3.0603941122333653
14.2,3.0077509197468584,2.952771110099052,3.0598124674468163
14.3,3.0077584686189525,2.9529258819578983,3.0590900967828056
14.4,3.007721436124237,2.953354144895747,3.058624415711776
14.5,3.0076398222627097,2.9538662338792836,3.057842356421225
14.6,3.0075136270343714,2.954292683411171,3.0569873490992525
14.7,3.007342850439222,2.954131429747828,3.05616388917117
14.8,3.0071274924772604,2.954251473486696,3.055539587856483
14.9,3.0068675531484885,2.9547401483513136,3.0548249652580823
15,3.006563032452905,2.9546628262536054,3.053986953284739
15.1,3.006213930390511,2.9554247323406555,3.053254069269811
15.2,3.0058202469613065,2.9561637878481015,3.052841739995896
15.3,3.0053819821652885,2.9563894538096447,3.0520980196606255
15.4,3.004899136002461,2.956670508341077,3.051238463670864
15.5,3.004371708472822,2.9571856003352175,3.050239465620693
15.6,3.003799699576372,2.9573334135547693,3.0492028918874814
15.7,3.0031831093131105,2.9565473605189663,3.048093165054061
15.8,3.002521937683037,2.9561256472724757,3.0469519635898785
15.9,3.0018161846861537,2.955736010228748,3.0460821153842654
16,3.001065850322459,2.955233103466332,3.044943410457536
16.1,3.0002709345919527,2.9549563814278206,3.043634789351907
16.2,2.9994314374946356,2.9544021288484466,3.0428071471240425
16.3,2.9985473590305065,2.954154086350167,3.041750628041406
16.4,2.9976186991995677,2.9534814792009896,3.040774242169111
16.5,2.9966454580018165,2.9528993388258513,3.039552147728652
16.6,2.995627635437254,2.9523704165244204,3.0386626109175663
16.7,2.9945652315058813,2.951932534963797,3.03752668297605
16.8,2.9934582462076964,2.95131937721663,3.036312935577457
16.9,2.992306679542701,2.950826916439815,3.0352506208666052
17,2.9911105315108943,2.9497698892214395,3.0337766336332264
17.1,2.989869802112276,2.9486717824864392,3.032299123763363
17.2,2.9885844913468476,2.9476195063941155,3.030944136063172
17.3,2.9872545992146065,2.9463159983861216,3.0293156590725783
17.4,2.9858801257155556,2.9455149742560245,3.0278312806530217
17.5,2.984461070849693,2.9443183691581045,3.026194452228396
17.6,2.9829974346170185,2.9432039484165355,3.0246354737731274
17.7,2.9814892170175344,2.941530738654222,3.023190054258393
17.8,2.979936418051237,2.9400051386431056,3.021329733504007
17.9,2.97833903771813,2.9386621154527512,3.0194749335352156
18,2.9766970760182114,2.937445608315562,3.017638103856648
18.1,2.9750105329514818,2.935778468487541,3.015766904803455
18.2,2.973279408517941,2.9340577099464245,3.014012343114188
18.3,2.9715037027175883,2.932738612097074,3.0121432902719683
18.4,2.9696834155504255,2.9309357056280465,3.0101146039267968
18.5,2.967818547016451,2.9290948611199097,3.0078936271371592
18.6,2.965909097115665,2.9273809092196235,3.005536494773012
18.7,2.9639550658480687,2.9253660824880487,3.003370549559495
18.8,2.96195645321366,2.923107759586135,3.001174153624502
18.9,2.959913259212441,2.9209802082266645,2.999080349409459
19,2.9578254838444105,2.919120530687281,2.9972658245880868
19.1,2.955693127109569,2.9168773192843007,2.9953243639398863
19.2,2.9535161890079165,2.914357583294833,2.9931395778366134
19.3,2.951294669539452,2.9120328132302373,2.990926502333207
19.4,2.9490285687041773,2.9097311682180553,2.988609303619149
19.5,2.946717886502091,2.907474369513886,2.98612441334481
19.6,2.944362622933194,2.9048444582857895,2.9837910131675303
19.7,2.9419627779974853,2.902460758066748,2.981469276341402
19.8,2.9395183516949643,2.8998565466386843,2.9791462955857337
19.9,2.937029344025634,2.8972469158925493,2.9767814118590863
20,2.9344957549894923,2.894868880693518,2.9742026426154755
20.1,2.9319175845865386,2.892397986857137,2.9717868954978055
20.2,2.9292948328167743,2.8897998030470085,2.9693222822489043
20.3,2.9266274996801975,2.886693659040053,2.96652910368052
20.4,2.923915585176811,2.8838822011382805,2.9642331524983514
20.5,2.921159089306613,2.8808767318031387,2.9616421658835694
20.6,2.9183580120696035,2.8780354576824525,2.95882720660179
20.7,2.915512353465784,2.8749284082638074,2.956102982063673
20.8,2.9126221134951518,2.871808742502413,2.953472702383656
20.9,2.9096872921577095,2.869011074670688,2.950608389369312
21,2.906707889453455,2.8659017273092866,2.94749655534611
21.1,2.9036839053823895,2.862934397919693,2.9443862047776768
21.2,2.900615339944514,2.860016193604978,2.941601684144433
21.3,2.8975021931398253,2.8570406813136286,2.938724907536919
21.4,2.894344464968327,2.8538308423112717,2.9356264340799525
21.5,2.891142155430017,2.8506326793634957,2.932456704121332
21.6,2.887895264524896,2.8474197286602934,2.929112352283135
21.7,2.884603792252964,2.8440091711722686,2.9257852323332525
21.8,2.8812677386142203,2.8404871061536916,2.9224057374220145
21.9,2.877887103608666,2.8371333741686273,2.9188089418818137
22,2.8744618872362997,2.833608544008949,2.9152650594966043
22.1,2.870992089497123,2.8300257299491256,2.911800325455051
22.2,2.8674777103911353,2.826509616392957,2.908370346058044
22.3,2.8639187499183354,2.8231684529083036,2.904950616424223
22.4,2.860315208078725,2.8195838961473285,2.9014187791222223
22.5,2.8566670848723033,2.816009386920671,2.8976358383387337
22.6,2.85297438029907,2.812315725355195,2.8937072954949965
22.7,2.849237094359027,2.8084266198076033,2.889957634155472
22.8,2.845455227052171,2.8047376907923227,2.886172371213685
22.9,2.841628778378505,2.800933549563563,2.882401427437066
23,2.837757748338027,2.796948665751228,2.8783040703309535
23.1,2.833842136930738,2.792946428779107,2.874342540140372
23.2,2.8298819441566385,2.7892691070837956,2.8704809321088796
23.3,2.825877170015727,2.7853845664936974,2.8664617759869766
23.4,2.821827814508005,2.781705502233372,2.862097212460494
23.5,2.8177338776334713,2.777954090394805,2.8579774795429067
23.6,2.813595359392126,2.773709940151635,2.853832445502384
23.7,2.809412259783971,2.7693233612287074,2.8495540141396556
23.8,2.805184578809003,2.7652593670864136,2.8452538886354857
23.9,2.800912316467225,2.7613473599151384,2.840922248926721
24,2.7965954727586357,2.757128480292468,2.8365389804896033
24.1,2.7922340476832352,2.7527621608961503,2.831971514368715
24.2,2.7878280412410237,2.7484082888594212,2.827389031220531
24.3,2.783377453432,2.7440087351739395,2.822967438986848
24.4,2.7788822842561665,2.739301194133982,2.818558015986064
24.5,2.7743425337135212,2.734708169332987,2.8140849177311265
24.6,2.7697582018040645,2.730397439414999,2.8093256138686016
24.7,2.765129288527797,2.725662340154829,2.8045095548288588
24.8,2.760455793884718,2.720885174245155,2.7998264923954714
24.9,2.755737717874828,2.7159955955610666,2.7949586784776725
25,2.750975060498127,2.7110709583689365,2.7900531533969515
25.1,2.7461678217546144,2.7060208902719967,2.7851896234088445
25.2,2.7413160016442912,2.7012063087254563,2.780129295436038
25.3,2.7364196001671557,2.696391480770335,2.7749300322636907
25.4,2.7314786173232104,2.691395637582601,2.7699938142106837
25.5,2.7264930531124527,2.686761079924274,2.76494760001716
25.6,2.7214629075348844,2.6815230390626907,2.759782393385588
25.7,2.7163881805905055,2.676314065066263,2.7547960683105215
25.8,2.711268872279314,2.67110116178974,2.7500690370300482
25.9,2.7061049826013126,2.6656639466844636,2.7450845101201518
26,2.7008965115564996,2.6603295978412165,2.740081102881252
26.1,2.6956434591448755,2.6549583152498792,2.734901583189292
26.2,2.69034582536644,2.6496401892952552,2.7298648088417314
26.3,2.685003610221193,2.6441477324609735,2.724750897606901
26.4,2.679616813709136,2.638582063567708,2.7196522109943446
26.5,2.6741854358302666,2.6329889390138144,2.714527042378588
26.6,2.6687094765845867,2.6271765748934817,2.709186611697958
26.7,2.6631889359720953,2.6213637584591587,2.703939437516904
26.8,2.6576238139927923,2.6154008823400012,2.6985137600117834
26.9,2.6520141106466797,2.6097619858981345,2.6929451937012603
27,2.646359825933754,2.603665300535165,2.6876866015994456
27.1,2.640660959854018,2.597851846919747,2.682163618575216
27.2,2.6349175124074713,2.5916980872155078,2.676721663249672
27.3,2.629129483594112,2.5855280437710344,2.6713065025918823
27.4,2.6232968734139432,2.5794104464022847,2.66600849172138
27.5,2.6174196818669624,2.5731742074872597,2.6603835772470097
27.6,2.6114979089531705,2.566696122453277,2.6544534435320157
27.7,2.6055315546725675,2.5609151797936773,2.648791109750781
27.8,2.599520619025153,2.5543470163079665,2.643193900977211
27.9,2.593465102010928,2.5480347542605504,2.6374347742695674
28,2.587365003629891,2.541476346730885,2.631773371322641
28.1,2.581220323882043,2.5346783572913414,2.6260656521167034
28.2,2.5750310627673842,2.5283867862930376,2.6204339728190353
28.3,2.568797220285914,2.5221260744443166,2.614522854138505
28.4,2.562518796437633,2.515712240561844,2.6085175311585864
28.5,2.55619579122254,2.5088187289316863,2.6026312647926497
28.6,2.549828204640636,2.5018030294824927,2.5966938261740706
28.7,2.5434160366919216,2.494599065388494,2.591027913940944
28.8,2.536959287376395,2.4876323784688745,2.5851099472779673
28.9,2.5304579566940584,2.4807044351244896,2.579191310198701
29,2.5239120446449093,2.4733834088743207,2.5729965214545305
29.1,2.5173215512289495,2.4660840163113993,2.5668899757635355
29.2,2.510686476446179,2.4592807368602316,2.560884012570521
29.3,2.5040068202965973,2.451945893263929,2.554861261279804
29.4,2.497282582780204,2.4447935500453815,2.5484456350757436
29.5,2.490513763897,2.437616614513414,2.54256877384017
29.6,2.483700363646984,2.42994036096689,2.5365415478817317
29.7,2.4768423820301573,2.4221686889107437,2.5303563547796486
29.8,2.4699398190465196,2.4147145196162536,2.5238974645680807
29.9,2.4629926746960704,2.407490825155365,2.517402925972833
30,2.45600094897881,2.399996216631063,2.510993497153396
30.1,2.4489646418947384,2.3920935376123134,2.5046565592913432
30.2,2.4418837534438564,2.3845054457334083,2.498084593450046
30.3,2.434758283626162,2.376803096194001,2.4915971155726258
30.4,2.4275882324416576,2.368796109237236,2.4851701859110555
30.5,2.4203735998903415,2.3606257087563742,2.478691138447747
30.6,2.4131143859722135,2.352652247971103,2.4719411034632945
30.7,2.4058105906872753,2.3443371678263647,2.4651880815316556
30.8,2.3984622140355256,2.3362263798209355,2.458583372279546
30.9,2.391069256016965,2.32829048932819,2.4516527553821112
31,2.3836317166315926,2.3196815971014173,2.444676065276621
31.1,2.3761495958794097,2.311187442269277,2.4380356059313657
31.2,2.3686228937604152,2.3030373476076424,2.4313420814977684
31.3,2.3610516102746093,2.2944901008021583,2.4242513734685196
31.4,2.3534357454219927,2.285758858561781,2.4176930857463645
31.5,2.3457752992025647,2.2773485402584495,2.411233543262341
31.6,2.338070271616325,2.2685736841836697,2.4044378009647427
31.7,2.330320662663275,2.2596597566710157,2.397542920221106
31.8,2.322526472343414,2.250836188396628,2.3908528514432557
31.9,2.314687700656741,2.2418226349213177,2.383923481049086
32,2.306804347603257,2.23290444440788,2.3773632721004514
32.1,2.2988764131829615,2.223942435863794,2.3703219672005047
32.2,2.2909038973958555,2.2151998346992325,2.3635738716791392
32.3,2.2828868002419385,2.206292228125836,2.356760430424843
32.4,2.27482512172121,2.197145122938492,2.3498958502016905
32.5,2.26671886183367,2.1876173252318143,2.3428932095779675
32.6,2.258568020579319,2.177988242245151,2.336149468750655
32.7,2.250372597958157,2.168458887640745,2.3292204120880924
32.8,2.242132593970184,2.158789748592203,2.322242869917484
32.9,2.233848008615399,2.1491077789753636,2.3150950759620113
33,2.2255188418938032,2.1391484136721193,2.3082271125971645
33.1,2.2171450938053963,2.129686659375595,2.3010935959147085
